20344,20010,20712,20710,20371,20195,20192,20567,20457,20739,20908,20373,20652,20029,20588,20620,20014,20645,20056,20519,20737,20301,20621,20052,20882,20224,20535,20915,20179,20670,20748,20764,20780,20079,20947,20723,20846,20944,20342,20372,20412,20112,20521,20302,20657,20406,20087,20166,20088,20327,20890,20617,20555,20902,20094,20601,20945,20018,20117,20625,20190,20283,20226,20404,20009,20187,20847,20634,20206,20610,20113,20635,20626,20872,20755,20855,20273,20951,20506,20067,20249,20836,20152,20515,20520,20611,20170,20516,20354,20292,20705,20701,20180,20124,20065,20709,20466,20838,20760,20186,20666,20163,20568,20550,20119,20912,20716,20591,20586,20656,20662,20540,20104,20911,20189,20940,20023,20592,20702,20633,20323,20587,20121,20640,20561,20175,20545,20133,20429,20608,20576,20992,20074,20753,20938,20968,20256,20254,20579,20242,20528,20683,20891,20508,20730,20069,20037,20246,20638,20482,20149,20472,20185,20357,20733,20102,20005,20685,20529,20427,20787,20839,20863,20736,20953,20083,20921,20240,20734,20355,20727,20569,20623,20832,20267,20936,20349,20269,20615,20241,20409,20161,20629,20578,20809,20000,20322,20658,20200,20024,20377,20436,20744,20476,20616,20642,20334,20496,20994,20597,20317,20786,20239,20453,20628,20417,20096,20459,20711,20565,20031,20328,20356,20478,20923,20167,20674,20452,20160,20694,20660,20743,20922,20443,20602,20365,20260,20678,20352,20442,20813,20574,20805,20003,20367,20731,20461,20339,20757,20318,20309,20312,20517,20898,20174,20963,20956,20188,20967,20980,20231,20942,20491,20692,20556,20900,20700,20870,20204,20974,20544,20011,20636,20264,20336,20394,20972,20108,20862,20060,20538,20806,20321,20479,20202,20297,20713,20782,20306,20828,20076,20986,20500,20228,20880,20291,20697,20598,20073,20811,20438,20236,20958,20410,20605,20618,20181,20251,20903,20869,20861,20366,20762,20001,20696,20665,20196,20050,20751,20916,20307,20537,20194,20699,20043,20724,20210,20820,20173,20382,20277,20405,20218,20244,20901,20892,20451,20893,20077,20686,20033,20808,20854,20653,20399,20219,20331,20250,20156,20827,20326,20959,20834,20258,20791,20996,20975,20624,20296,20270,20172,20607,20054,20575,20446,20418,20707,20396,20386,20785,20919,20085,20842,20376,20047,20850,20303,20378,20176,20168,20661,20849,20444,20531,20387,20503,20613,20474,20347,20560,20510,20038,20449,20801,20566,20212,20784,20955,20345,20015,20987,20330,20441,20456,20965,20600,20769,20779,20622,20007,20391,20136,20426,20497,20704,20750,20063,20939,20100,20289,20717,20099,20899,20333,20752,20776,20041,20338,20909,20019,20282,20437,20089,20403,20815,20929,20969,20612,20183,20051,20329,20983,20876,20523,20971,20856,20215,20154,20604,20663,20906,20486,20822,20868,20570,20507,20772,20763,20465,20353,20081,20182,20518,20651,20930,20304,20400,20390,20873,20976,20691,20883,20989,20064,20789,20261,20025,20582,20654,20055,20184,20275,20369,20092,20423,20830,20581,20217,20596,20726,20091,20995,20671,20777,20991,20867,20470,20807,20288,20454,20036,20673,20775,20907,20208,20483,20299,20564,20068,20823,20243,20361,20131,20826,20335,20122,20522,20178,20072,20257,20248,20022,20511,20280,20664,20563,20230,20783,20337,20937,20672,20675,20682,20689,20631,20216,20558,20450,20155,20227,20059,20614,20017,20487,20548,20513,20360,20363,20934,20559,20146,20469,20290,20030,20431,20343,20433,20759,20027,20126,20973,20914,20708,20223,20159,20109,20931,20397,20982,20795,20553,20589,20016,20858,20268,20999,20533,20669,20792,20950,20440,20981,20375,20271,20151,20761,20428,20162,20943,20957,20141,20754,20603,20130,20021,20812,20800,20541,20860,20120,20655,20272,20720,20770,20111,20804,20026,20048,20859,20879,20746,20040,20817,20225,20833,20527,20773,20547,20144,20209,20402,20415,20157,20609,20020,20370,20676,20852,20332,20285,20819,20293,20732,20480,20719,20913,20314,20841,20627,20430,20698,20639,20045,20718,20585,20643,20325,20557,20300,20434,20632,20799,20489,20848,20894,20488,20977,20524,20287,20233,20171,20379,20115,20606,20765,20740,20140,20473,20165,20266,20824,20132,20722,20316,20385,20252,20471,20148,20933,20648,20843,20475,20970,20926,20874,20380,20118,20116,20341,20008,20668,20232,20918,20884,20774,20298,20771,20103,20865,20447,20580,20320,20425,20818,20768,20885,20462,20421,20393,20255,20110,20201,20058,20886,20935,20445,20502,20247,20735,20263,20340,20647,20571,20259,20057,20101,20142,20313,20310,20695,20802,20278,20034,20766,20514,20294,20484,20381,20374,20139,20794,20590,20408,20214,20512,20679,20416,20501,20106,20315,20905,20997,20910,20191,20485,20650,20137,20407,20368,20925,20274,20420,20464,20573,20530,20985,20147,20093,20398,20526,20066,20788,20715,20053,20086,20350,20798,20998,20871,20392,20816,20221,20004,20049,20549,20284,20135,20262,20177,20207,20414,20348,20924,20877,20235,20061,20071,20741,20543,20684,20644,20778,20238,20797,20525,20082,20105,20964,20245,20728,20213,20032,20123,20432,20988,20738,20078,20619,20693,20758,20080,20070,20308,20542,20237,20747,20090,20234,20197,20781,20814,20536,20211,20145,20641,20481,20793,20887,20577,20153,20095,20904,20509,20928,20551,20954,20035,20460,20690,20725,20941,20649,20821,20840,20384,20359,20107,20128,20114,20534,20837,20362,20562,20389,20745,20305,20706,20864,20593,20097,20364,20042,20199,20895,20595,20346,20012,20742,20311,20637,20419,20888,20002,20949,20324,20803,20198,20422,20495,20129,20845,20388,20853,20279,20667,20411,20395,20383,20006,20044,20875,20220,20749,20857,20790,20594,20143,20630,20835,20952,20920,20062,20554,20276,20721,20552,20878,20729,20889,20896,20681,20295,20505,20439,20984,20463,20499,20584,20205,20075,20134,20948,20319,20455,20659,20680,20492,20458,20599,20424,20946,20468,20169,20490,20448,20253,20532,20979,20138,20150,20084,20831,20756,20927,20993,20961,20978,20046,20203,20125,20193,20286,20413,20498,20851,20401,20098,20966,20546,20494,20703,20829,20796,20467,20646,20960,20687,20477,20435,20932,20039,20583,20504,20897,20990,20866,20164,20222,20351,20493,20810,20265,20281,20127,20962,20028,20158,20572,20358,20539,20688,20714,20013,20767,20825,20677,20229,20881,20917,20844,05986,05409,05533,05607,05369,05352,05316,05151,05321,05574,05149,05649,05049,05033,05479,05617,05699,05717,05801,05858,05168,05410,05285,05133,05170,05024,05441,05828,05707,05434,05623,05231,05911,05645,05556,05857,05202,05182,05914,05112,05075,05590,05784,05422,05757,05474,05924,05603,05715,05053,05826,05972,05195,05266,05012,05103,05613,05408,05452,05397,05663,05111,05762,05188,05694,05980,05332,05703,05587,05953,05208,05416,05928,05810,05153,05272,05745,05635,05393,05692,05838,05198,05403,05297,05162,05491,05355,05989,05584,05038,05344,05130,05859,05999,05010,05672,05102,05795,05376,05655,05458,05679,05278,05421,05797,05945,05161,05144,05081,05050,05309,05207,05992,05863,05476,05338,05461,05854,05086,05250,05482,05354,05001,05748,05503,05733,05493,05680,05463,05880,05839,05628,05351,05955,05423,05848,05772,05004,05833,05785,05853,05374,05665,05656,05842,05548,05271,05995,05079,05238,05727,05466,05958,05790,05314,05831,05544,05622,05333,05630,05280,05289,05442,05073,05864,05569,05404,05483,05467,05450,05538,05002,05609,05824,05496,05269,05740,05320,05759,05589,05382,05962,05761,05885,05670,05204,05067,05787,05661,05324,05470,05093,05350,05255,05944,05822,05626,05568,05807,05008,05437,05074,05023,05052,05887,05698,05998,05114,05418,05099,05471,05469,05039,05046,05966,05345,05485,05916,05292,05481,05027,05734,05636,05996,05682,05889,05370,05535,05267,05846,05199,05390,05148,05552,05468,05059,05638,05595,05325,05903,05445,05896,05388,05362,05313,05256,05109,05943,05190,05171,05406,05096,05116,05428,05017,05780,05378,05157,05835,05089,05041,05057,05721,05030,05788,05710,05666,05177,05888,05472,05677,05150,05577,05459,05430,05598,05521,05766,05764,05708,05611,05395,05380,05523,05940,05651,05411,05453,05768,05176,05554,05545,05227,05251,05064,05464,05295,05304,05155,05512,05612,05058,05029,05261,05301,05508,05712,05131,05494,05579,05823,05451,05136,05037,05799,05704,05742,05160,05604,05525,05576,05143,05311,05852,05819,05669,05152,05729,05929,05834,05279,05394,05260,05048,05396,05456,05123,05821,05934,05339,05447,05873,05997,05062,05509,05014,05667,05174,05933,05386,05389,05283,05893,05938,05957,05090,05809,05061,05405,05135,05264,05791,05504,05657,05185,05868,05431,05480,05890,05209,05353,05977,05633,05926,05420,05072,05455,05793,05991,05952,05805,05796,05923,05319,05045,05347,05615,05218,05044,05328,05720,05601,05080,05066,05224,05184,05884,05975,05016,05118,05223,05164,05765,05495,05124,05310,05407,05976,05414,05602,05565,05257,05660,05268,05015,05894,05412,05373,05156,05060,05827,05365,05735,05531,05486,05032,05925,05582,05862,05083,05847,05247,05007,05189,05711,05825,05994,05429,05522,05205,05731,05754,05348,05883,05306,05964,05274,05674,05392,05417,05951,05237,05723,05605,05507,05440,05300,05120,05384,05541,05500,05192,05265,05640,05243,05870,05234,05581,05194,05811,05689,05364,05618,05129,05040,05056,05253,05985,05220,05983,05781,05706,05132,05614,05097,05634,05121,05878,05391,05979,05616,05019,05018,05454,05749,05652,05165,05263,05965,05335,05882,05222,05558,05798,05226,05254,05069,05867,05031,05968,05676,05191,05678,05172,05104,05946,05747,05435,05181,05586,05909,05484,05693,05293,05217,05180,05736,05317,05400,05329,05377,05632,05323,05792,05812,05372,05070,05963,05291,05511,05021,05035,05342,05971,05327,05489,05287,05637,05196,05475,05308,05115,05578,05937,05606,05592,05832,05330,05705,05228,05557,05871,05872,05488,05106,05728,05681,05758,05360,05534,05973,05446,05802,05462,05959,05794,05625,05865,05608,05777,05071,05746,05340,05516,05186,05687,05318,05091,05829,05671,05737,05229,05065,05146,05778,05540,05134,05514,05487,05713,05830,05907,05675,05639,05163,05855,05235,05138,05841,05262,05970,05359,05631,05818,05000,05683,05349,05425,05322,05315,05244,05775,05583,05139,05537,05562,05270,05379,05866,05553,05774,05851,05140,05527,05702,05424,05874,05212,05240,05814,05036,05294,05137,05898,05110,05169,05815,05627,05990,05122,05242,05726,05654,05025,05298,05101,05922,05648,05930,05725,05697,05128,05022,05850,05803,05490,05741,05465,05591,05519,05203,05105,05159,05573,05877,05436,05343,05967,05305,05299,05912,05499,05684,05013,05107,05543,05624,05642,05650,05232,05088,05473,05876,05673,05011,05413,05276,05658,05439,05730,05549,05532,05559,05383,05366,05886,05695,05399,05920,05341,05438,05368,05956,05843,05629,05363,05197,05119,05744,05498,05241,05210,05750,05696,05844,05258,05529,05644,05127,05215,05881,05561,05978,05108,05505,05908,05275,05448,05936,05433,05641,05954,05331,05760,05003,05647,05969,05837,05653,05961,05585,05524,05845,05426,05547,05286,05193,05087,05141,05599,05009,05600,05572,05931,05236,05302,05688,05178,05518,05510,05752,05575,05100,05142,05085,05594,05402,05567,05158,05763,05593,05816,05662,05047,05303,05879,05334,05526,05076,05897,05387,05813,05917,05078,05571,05935,05371,05259,05906,05296,05776,05719,05098,05077,05984,05620,05432,05570,05808,05820,05722,05175,05401,05444,05443,05716,05756,05988,05892,05804,05277,05743,05419,05415,05751,05113,05501,05063,05006,05239,05927,05891,05233,05806,05166,05214,05948,05284,05560,05092,05515,05836,05520,05915,05869,05789,05901,05028,05563,05709,05034,05536,05005,05960,05337,05477,05685,05336,05993,05767,05506,05117,05307,05126,05517,05221,05068,05619,05668,05095,05497,05913,05701,05849,05513,05246,05457,05753,05248,05738,05427,05895,05899,05919,05779,05356,05042,05281,05449,05783,05714,05167,05782,05201,05502,05786,05691,05043,05771,05755,05084,05949,05125,05686,05094,05542,05902,05020,05800,05478,05528,05724,05460,05621,05769,05082,05375,05981,05643,05690,05551,05580,05213,05942,05597,05770,05252,05183,05187,05312,05200,05398,05918,05173,05211,05987,05546,05381,05982,05856,05358,05026,05718,05646,05249,05230,05179,05219,05216,05921,05941,05051,05900,05361,05225,05326,05588,05947,05939,05739,05910,05904,05145,05861,05530,05596,05245,05875,05385,05659,05860,05282,05905,05932,05539,05357,05367,05840,05550,05346,05732,05700,05773,05206,05288,05566,05273,05610,05664,05055,05147,05290,05564,05154,05054,05492,05555,05974,05950,08986,08613,08742,08776,08327,08968,08267,08430,08200,08207,08339,08377,08872,08947,08900,08155,08000,08461,08910,08065,08250,08733,08246,08411,08709,08676,08723,08436,08665,08971,08695,08167,08863,08090,08744,08429,08951,08393,08526,08702,08996,08495,08432,08198,08254,08384,08610,08241,08796,08662,08265,08068,08409,08475,08293,08960,08228,08582,08521,08303,08890,08966,08185,08310,08496,08784,08004,08353,08062,08224,08044,08152,08081,08375,08350,08596,08235,08995,08014,08696,08956,08715,08419,08678,08609,08233,08320,08802,08276,08211,08502,08834,08011,08894,08851,08424,08706,08994,08659,08983,08176,08595,08094,08226,08425,08331,08095,08332,08653,08438,08426,08191,08950,08317,08852,08701,08469,08583,08549,08380,08865,08517,08810,08607,08792,08786,08907,08511,08647,08819,08471,08805,08557,08904,08718,08091,08855,08876,08100,08809,08390,08222,08329,08102,08391,08754,08510,08908,08530,08214,08816,08378,08392,08854,08484,08627,08126,08464,08974,08221,08488,08416,08477,08730,08202,08985,08345,08843,08111,08962,08376,08358,08824,08775,08666,08306,08362,08781,08504,08069,08291,08333,08285,08509,08372,08637,08903,08952,08588,08280,08660,08690,08981,08134,08933,08239,08002,08599,08717,08439,08788,08953,08523,08800,08067,08598,08379,08103,08548,08860,08122,08803,08576,08133,08064,08636,08885,08118,08236,08490,08323,08460,08398,08563,08873,08349,08335,08688,08313,08638,08124,08106,08729,08244,08789,08112,08183,08765,08764,08201,08117,08687,08028,08164,08545,08793,08867,08924,08297,08472,08565,08252,08736,08051,08537,08589,08052,08849,08710,08299,08171,08912,08076,08639,08462,08084,08288,08402,08414,08771,08026,08381,08264,08309,08109,08850,08127,08385,08307,08804,08503,08302,08023,08783,08115,08586,08919,08574,08988,08493,08093,08386,08726,08838,08939,08923,08116,08130,08543,08113,08287,08405,08145,08948,08169,08498,08505,08887,08578,08099,08568,08918,08937,08768,08766,08614,08518,08294,08980,08013,08642,08878,08255,08881,08626,08480,08180,08247,08074,08913,08724,08990,08886,08367,08622,08716,08651,08615,08395,08597,08547,08322,08532,08708,08541,08389,08326,08997,08731,08954,08015,08821,08446,08897,08168,08159,08618,08058,08123,08836,08032,08278,08681,08929,08663,08031,08344,08404,08725,08799,08669,08308,08611,08949,08753,08305,08560,08760,08072,08452,08151,08648,08999,08567,08071,08491,08238,08915,08909,08007,08178,08101,08257,08822,08413,08667,08050,08213,08148,08181,08580,08190,08697,08685,08945,08447,08041,08212,08368,08025,08946,08279,08277,08037,08840,08677,08998,08449,08656,08036,08444,08757,08251,08562,08455,08046,08889,08965,08525,08470,08683,08055,08975,08721,08016,08467,08906,08536,08249,08634,08777,08098,08812,08240,08289,08140,08905,08743,08617,08319,08482,08879,08623,08219,08707,08441,08741,08680,08259,08961,08942,08232,08209,08978,08038,08544,08314,08963,08105,08992,08215,08104,08661,08366,08875,08857,08324,08700,08938,08575,08546,08861,08077,08650,08348,08842,08382,08828,08759,08507,08896,08603,08040,08761,08230,08829,08273,08689,08934,08570,08519,08139,08163,08428,08693,08916,08261,08421,08674,08533,08973,08110,08316,08440,08858,08059,08501,08161,08528,08958,08571,08552,08773,08132,08017,08727,08187,08534,08758,08043,08833,08740,08053,08869,08612,08593,08479,08260,08427,08070,08374,08403,08564,08354,08087,08935,08746,08835,08967,08295,08160,08976,08559,08143,08629,08654,08755,08633,08844,08453,08957,08631,08186,08088,08431,08153,08203,08216,08396,08296,08258,08407,08883,08218,08606,08301,08364,08458,08042,08837,08082,08408,08979,08182,08940,08522,08539,08150,08769,08166,08298,08747,08019,08274,08343,08813,08619,08572,08223,08558,08645,08866,08632,08643,08162,08423,08481,08410,08253,08748,08005,08649,08021,08791,08516,08443,08245,08970,08205,08892,08445,08266,08270,08554,08818,08750,08468,08594,08831,08806,08989,08154,08008,08882,08644,08808,08512,08527,08927,08646,08620,08227,08555,08590,08399,08520,08275,08196,08749,08787,08734,08030,08437,08039,08499,08370,08977,08338,08698,08542,08673,08121,08561,08147,08142,08361,08846,08434,08359,08492,08157,08435,08006,08073,08096,08670,08762,08474,08735,08208,08898,08049,08177,08286,08719,08158,08540,08195,08371,08823,08131,08841,08513,08591,08342,08893,08334,08671,08029,08179,08075,08868,08269,08921,08283,08352,08473,08451,08086,08712,08630,08457,08290,08655,08174,08780,08941,08608,08616,08969,08184,08550,08210,08737,08928,08346,08874,08315,08508,08125,08692,08448,08641,08714,08188,08531,08763,08944,08694,08711,08901,08959,08943,08770,08601,08926,08577,08061,08311,08778,08369,08206,08797,08652,08397,08888,08107,08497,08128,08628,08767,08832,08045,08684,08640,08465,08192,08054,08864,08406,08817,08415,08340,08922,08880,08830,08056,08417,08920,08795,08514,08463,08388,08229,08658,08713,08657,08635,08745,08839,08012,08433,08871,08848,08321,08418,08672,08085,08772,08585,08341,08412,08281,08703,08237,08141,08825,08020,08466,08365,08853,08225,08360,08120,08363,08782,08199,08066,08917,08170,08351,08356,08079,08442,08231,08573,08357,08991,08197,08704,08814,08664,08034,08936,08891,08292,08621,08569,08256,08138,08325,08485,08801,08751,08009,08604,08752,08506,08108,08794,08720,08535,08602,08845,08686,08624,08165,08899,08811,08691,08486,08955,08080,08057,08972,08738,08870,08538,08494,08022,08119,08144,08877,08003,08476,08047,08932,08993,08581,08189,08282,08489,08114,08149,08450,08884,08790,08173,08422,08862,08035,08420,08925,08478,08018,08347,08675,08318,08930,08456,08579,08459,08895,08400,08483,08902,08987,08328,08146,08242,08027,08529,08234,08394,08785,08964,08175,08193,08592,08911,08284,08401,08001,08820,08682,08587,08137,08089,08010,08605,08172,08097,08271,08914,08387,08625,08330,08859,08355,08383,08129,08566,08699,08304,08300,08217,08048,08268,08373,08732,08679,08779,08827,08551,08982,08060,08856,08728,08220,08248,08063,08584,08931,08984,08204,08756,08033,08194,08556,08722,08705,08815,08553,08600,08243,08092,08136,08807,08487,08312,08798,08500,08156,08272,08135,08739,08826,08336,08263,08083,08847,08454,08078,08337,08774,08515,08024,08262,08668,08524,16540,16673,16009,16965,16517,16726,16940,16343,16080,16563,16218,16562,16331,16922,16614,16294,16020,16505,16905,16278,16927,16686,16815,16995,16680,16806,16577,16319,16489,16412,16388,16376,16413,16727,16543,16929,16001,16354,16427,16546,16732,16074,16118,16663,16964,16504,16451,16473,16796,16828,16478,16344,16624,16450,16848,16981,16089,16082,16142,16665,16743,16031,16309,16955,16786,16322,16503,16678,16647,16941,16818,16026,16802,16357,16793,16585,16713,16695,16088,16594,16189,16627,16230,16389,16257,16190,16185,16010,16862,16375,16856,16906,16662,16019,16846,16597,16642,16437,16669,16754,16240,16813,16586,16059,16568,16231,16584,16556,16849,16976,16866,16275,16972,16864,16475,16751,16003,16689,16368,16541,16157,16394,16329,16004,16648,16440,16469,16143,16481,16549,16749,16761,16244,16574,16188,16909,16465,16414,16317,16803,16522,16701,16254,16044,16567,16697,16858,16305,16424,16842,16518,16569,16536,16097,16730,16748,16717,16008,16756,16445,16538,16876,16970,16430,16656,16169,16788,16834,16385,16733,16138,16348,16714,16464,16498,16085,16677,16034,16325,16408,16742,16047,16115,16332,16043,16096,16452,16895,16822,16441,16457,16620,16403,16320,16052,16495,16058,16618,16350,16129,16534,16694,16961,16029,16604,16924,16639,16438,16177,16783,16466,16666,16530,16766,16132,16131,16463,16471,16613,16390,16133,16925,16888,16684,16220,16851,16392,16917,16632,16840,16165,16507,16435,16676,16040,16771,16327,16127,16126,16722,16837,16054,16636,16736,16633,16527,16975,16246,16021,16268,16500,16170,16184,16739,16380,16599,16580,16339,16277,16933,16640,16488,16418,16086,16057,16276,16770,16301,16056,16945,16002,16091,16235,16130,16195,16921,16067,16539,16046,16865,16316,16358,16337,16049,16715,16984,16314,16016,16183,16341,16779,16150,16776,16125,16449,16352,16560,16334,16958,16653,16968,16588,16323,16215,16137,16194,16005,16913,16369,16575,16930,16141,16283,16709,16136,16398,16551,16816,16030,16704,16810,16746,16485,16892,16120,16416,16629,16420,16879,16434,16557,16038,16811,16140,16448,16123,16908,16928,16366,16018,16789,16013,16386,16370,16989,16262,16068,16175,16102,16355,16509,16559,16521,16426,16655,16516,16773,16660,16179,16971,16890,16094,16296,16406,16407,16387,16532,16484,16795,16682,16611,16224,16226,16243,16809,16025,16872,16982,16651,16227,16297,16710,16912,16284,16707,16436,16844,16808,16101,16428,16015,16763,16910,16321,16180,16207,16069,16162,16847,16758,16724,16502,16098,16250,16936,16878,16914,16737,16555,16832,16422,16496,16718,16807,16172,16703,16363,16263,16670,16610,16969,16792,16977,16688,16587,16581,16114,16675,16801,16768,16740,16590,16076,16364,16051,16564,16490,16833,16499,16151,16571,16550,16270,16877,16814,16396,16311,16237,16266,16264,16679,16721,16022,16510,16037,16693,16119,16785,16980,16800,16365,16650,16148,16974,16797,16824,16592,16461,16954,16443,16554,16757,16446,16007,16775,16483,16287,16589,16000,16645,16512,16280,16926,16959,16598,16442,16903,16885,16997,16871,16764,16891,16071,16819,16090,16886,16174,16579,16593,16787,16304,16916,16850,16209,16991,16163,16272,16384,16014,16570,16944,16095,16367,16524,16212,16145,16869,16845,16462,16572,16373,16166,16200,16205,16542,16798,16236,16778,16079,16602,16285,16817,16167,16050,16983,16221,16841,16626,16405,16255,16122,16520,16728,16782,16668,16383,16324,16759,16201,16146,16271,16340,16326,16596,16565,16672,16734,16147,16874,16957,16956,16210,16006,16537,16889,16880,16128,16474,16812,16360,16634,16901,16121,16410,16258,16338,16899,16349,16804,16260,16511,16439,16106,16752,16456,16421,16687,16657,16374,16566,16966,16893,16062,16705,16855,16932,16860,16336,16990,16308,16911,16455,16259,16477,16382,16429,16362,16674,16239,16073,16104,16942,16772,16178,16519,16228,16644,16621,16625,16399,16160,16134,16152,16883,16479,16497,16154,16683,16769,16595,16191,16852,16777,16330,16706,16501,16755,16425,16873,16078,16072,16310,16269,16460,16716,16654,16583,16992,16493,16979,16535,16685,16153,16923,16931,16113,16821,16281,16919,16994,16561,16720,16881,16747,16216,16315,16232,16805,16643,16487,16229,16794,16168,16206,16617,16868,16762,16870,16784,16397,16939,16064,16356,16253,16198,16915,16359,16952,16312,16531,16999,16372,16267,16578,16480,16934,16978,16967,16347,16335,16251,16100,16753,16867,16988,16830,16171,16039,16548,16371,16576,16637,16948,16799,16987,16176,16731,16533,16950,16110,16192,16963,16820,16103,16616,16033,16186,16843,16600,16242,16609,16744,16553,16861,16894,16790,16035,16135,16708,16558,16075,16882,16032,16863,16646,16292,16652,16249,16492,16111,16591,16659,16641,16055,16289,16494,16027,16628,16419,16681,16547,16274,16719,16318,16825,16061,16158,16630,16529,16711,16211,16453,16725,16431,16649,16508,16222,16083,16063,16582,16248,16607,16401,16273,16252,16391,16233,16402,16298,16261,16117,16012,16996,16313,16238,16745,16622,16011,16723,16404,16214,16199,16853,16671,16093,16552,16907,16245,16601,16985,16307,16608,16045,16265,16070,16423,16953,16658,16612,16619,16279,16661,16181,16638,16765,16515,16345,16698,16234,16486,16219,16900,16875,16854,16173,16523,16514,16164,16949,16904,16081,16377,16947,16482,16290,16060,16306,16109,16993,16053,16827,16884,16182,16048,16791,16303,16415,16735,16286,16099,16144,16491,16829,16951,16393,16409,16155,16417,16432,16702,16203,16859,16433,16738,16857,16161,16835,16544,16526,16107,16333,16124,16476,16513,16573,16898,16379,16454,16197,16467,16041,16023,16400,16774,16042,16256,16943,16328,16935,16887,16217,16213,16247,16084,16750,16116,16897,16065,16346,16998,16741,16108,16712,16381,16896,16066,16691,16299,16028,16920,16823,16760,16196,16986,16202,16159,16664,16444,16077,16395,16458,16699,16353,16525,16826,16780,16361,16087,16293,16092,16223,16351,16918,16024,16960,16839,16468,16946,16902,16156,16973,16729,16667,16767,16615,16838,16378,16112,16700,16208,16635,16606,16831,16623,16836,16342,16696,16036,16017,16187,16472,16204,16139,16690,16149,16781,16937,16692,16470,16506,16603,16291,16605,16225,16545,16295,16938,16105,16411,16631,16282,16302,16459,16193,16300,16528,16447,16962,16288,16241,06880,06741,06393,06951,06593,06080,06590,06882,06076,06929,06803,06410,06878,06162,06616,06251,06742,06659,06091,06421,06776,06327,06512,06062,06645,06350,06261,06481,06439,06667,06165,06652,06113,06905,06811,06105,06623,06072,06822,06248,06385,06535,06181,06414,06334,06838,06933,06144,06380,06019,06498,06527,06066,06626,06002,06716,06256,06528,06021,06956,06904,06870,06948,06254,06531,06877,06366,06372,06922,06045,06328,06391,06608,06735,06819,06816,06733,06903,06134,06954,06839,06441,06783,06084,06909,06864,06777,06023,06506,06524,06936,06086,06824,06182,06851,06298,06986,06894,06507,06980,06551,06664,06090,06179,06563,06860,06068,06347,06581,06294,06081,06018,06875,06166,06584,06973,06582,06920,06585,06396,06253,06258,06037,06453,06454,06491,06185,06496,06717,06067,06532,06240,06390,06187,06152,06224,06815,06662,06854,06625,06356,06560,06985,06613,06472,06738,06770,06369,06814,06624,06300,06773,06082,06982,06200,06553,06886,06374,06754,06235,06620,06048,06484,06456,06938,06964,06295,06966,06429,06118,06381,06772,06674,06495,06699,06147,06127,06061,06631,06771,06074,06241,06142,06617,06965,06650,06852,06440,06718,06349,06184,06354,06213,06479,06755,06174,06313,06125,06319,06135,06193,06463,06098,06945,06696,06990,06713,06518,06577,06637,06849,06915,06464,06146,06700,06858,06219,06533,06384,06482,06691,06446,06622,06413,06872,06296,06653,06874,06703,06988,06589,06983,06136,06407,06591,06944,06722,06598,06493,06246,06376,06885,06853,06013,06277,06513,06489,06627,06618,06004,06340,06257,06148,06856,06825,06793,06373,06565,06116,06806,06550,06488,06635,06497,06758,06934,06211,06096,06610,06994,06266,06556,06764,06588,06041,06647,06226,06767,06039,06511,06517,06719,06431,06890,06706,06436,06868,06714,06233,06871,06926,06522,06604,06557,06720,06388,06536,06087,06357,06107,06927,06279,06375,06231,06740,06290,06085,06671,06110,06083,06955,06752,06206,06423,06156,06210,06912,06510,06963,06991,06746,06343,06363,06411,06079,06958,06057,06501,06709,06525,06202,06935,06227,06249,06230,06259,06225,06308,06862,06189,06111,06409,06594,06449,06879,06055,06310,06278,06132,06326,06031,06634,06789,06571,06101,06845,06792,06679,06892,06795,06046,06415,06204,06683,06221,06575,06917,06705,06666,06569,06121,06930,06442,06474,06989,06177,06648,06001,06271,06242,06781,06881,06475,06950,06768,06603,06595,06364,06515,06339,06459,06500,06763,06103,06615,06383,06687,06137,06762,06070,06928,06403,06731,06157,06998,06345,06798,06820,06596,06168,06097,06196,06867,06942,06644,06971,06129,06807,06229,06599,06075,06976,06297,06188,06305,06747,06280,06330,06494,06701,06462,06159,06931,06614,06552,06119,06015,06780,06346,06153,06749,06677,06790,06244,06834,06095,06120,06272,06641,06800,06338,06275,06715,06167,06428,06784,06727,06968,06743,06155,06214,06022,06710,06708,06238,06122,06476,06318,06344,06779,06900,06997,06960,06654,06149,06212,06131,06693,06049,06937,06150,06480,06514,06398,06835,06840,06686,06283,06315,06788,06192,06959,06605,06802,06028,06108,06011,06359,06883,06568,06949,06859,06724,06573,06417,06124,06962,06952,06757,06827,06651,06332,06978,06252,06104,06274,06689,06992,06529,06317,06077,06115,06492,06141,06897,06682,06303,06661,06684,06408,06026,06601,06123,06467,06362,06999,06668,06470,06032,06813,06322,06468,06243,06378,06502,06432,06089,06331,06698,06335,06766,06921,06353,06352,06995,06711,06736,06329,06609,06320,06287,06621,06630,06857,06785,06809,06139,06088,06207,06205,06732,06808,06191,06913,06169,06401,06059,06899,06670,06460,06751,06245,06876,06554,06473,06914,06402,06458,06368,06397,06299,06902,06818,06697,06508,06519,06178,06655,06203,06161,06321,06975,06729,06826,06198,06941,06094,06069,06891,06341,06499,06405,06726,06888,06707,06600,06469,06047,06163,06035,06672,06311,06967,06660,06485,06160,06220,06523,06173,06685,06420,06183,06765,06817,06208,06680,06264,06901,06444,06425,06140,06695,06787,06640,06946,06646,06821,06291,06288,06549,06348,06530,06093,06586,06636,06010,06399,06029,06555,06775,06422,06526,06034,06972,06794,06606,06748,06051,06996,06828,06433,06866,06561,06548,06309,06217,06445,06712,06304,06537,06265,06387,06993,06846,06799,06810,06289,06544,06255,06979,06008,06268,06541,06306,06237,06830,06190,06539,06833,06638,06447,06804,06044,06737,06778,06216,06050,06669,06869,06301,06984,06262,06337,06987,06739,06307,06128,06215,06504,06977,06702,06438,06416,06538,06065,06487,06404,06064,06924,06450,06126,06435,06534,06355,06611,06850,06503,06151,06734,06102,06844,06723,06649,06887,06925,06893,06545,06744,06884,06953,06117,06302,06678,06566,06043,06448,06025,06540,06052,06260,06424,06832,06323,06379,06907,06580,06583,06293,06276,06547,06145,06629,06628,06222,06974,06370,06400,06658,06923,06725,06284,06056,06106,06836,06657,06957,06239,06745,06247,06761,06236,06133,06158,06567,06342,06841,06889,06333,06030,06020,06324,06750,06619,06171,06906,06910,06195,06721,06058,06673,06759,06006,06336,06690,06361,06939,06760,06223,06570,06842,06443,06234,06521,06919,06465,06612,06837,06250,06009,06109,06377,06365,06099,06688,06194,06847,06172,06542,06981,06694,06199,06471,06412,06812,06769,06389,06486,06170,06774,06164,06592,06692,06042,06642,06543,06490,06209,06282,06848,06040,06434,06292,06947,06270,06632,06639,06197,06753,06286,06007,06559,06861,06932,06360,06940,06063,06386,06027,06392,06918,06865,06014,06791,06143,06038,06092,06024,06000,06273,06665,06911,06371,06114,06130,06572,06796,06054,06831,06457,06873,06676,06823,06829,06587,06005,06782,06395,06406,06656,06805,06269,06855,06961,06505,06382,06358,06597,06663,06430,06285,06218,06036,06970,06071,06201,06316,06017,06895,06477,06053,06418,06578,06451,06562,06478,06797,06176,06367,06112,06312,06969,06180,06263,06643,06012,06558,06898,06681,06455,06033,06351,06016,06003,06516,06483,06675,06073,06186,06704,06564,06633,06154,06801,06520,06394,06576,06452,06943,06100,06916,06314,06602,06574,06908,06863,06228,06325,06730,06427,06509,06281,06756,06060,06466,06579,06786,06078,06461,06426,06607,06267,06896,06138,06232,06175,06546,06437,06419,06843,06728,04987,04446,04837,04488,04448,04735,04980,04383,04975,04461,04934,04295,04854,04557,04720,04555,04775,04132,04901,04173,04938,04974,04265,04764,04988,04347,04136,04507,04241,04958,04512,04832,04402,04066,04670,04320,04212,04050,04566,04150,04206,04290,04341,04015,04100,04640,04098,04453,04722,04336,04535,04779,04666,04674,04362,04737,04913,04878,04233,04122,04105,04534,04152,04011,04589,04928,04371,04335,04791,04529,04672,04959,04942,04018,04769,04957,04644,04954,04072,04780,04891,04019,04582,04325,04714,04825,04823,04864,04192,04007,04071,04513,04829,04074,04079,04699,04578,04924,04991,04464,04631,04527,04381,04718,04185,04601,04715,04542,04704,04936,04064,04267,04723,04629,04026,04228,04552,04374,04462,04986,04517,04249,04138,04086,04869,04590,04803,04190,04919,04558,04643,04686,04252,04357,04504,04706,04289,04353,04283,04626,04744,04822,04294,04656,04809,04039,04703,04525,04783,04579,04628,04939,04767,04044,04996,04344,04001,04209,04777,04043,04645,04904,04684,04549,04906,04757,04334,04359,04324,04650,04740,04087,04872,04789,04784,04076,04008,04349,04621,04425,04607,04887,04597,04669,04945,04017,04556,04694,04701,04058,04695,04025,04732,04567,04510,04947,04203,04121,04466,04222,04049,04433,04091,04286,04445,04215,04038,04700,04377,04182,04236,04571,04048,04160,04480,04652,04221,04821,04630,04877,04885,04785,04657,04930,04915,04022,04456,04230,04275,04054,04329,04297,04229,04497,04719,04892,04972,04831,04157,04057,04282,04268,04486,04545,04782,04164,04158,04503,04469,04963,04090,04753,04642,04802,04615,04685,04284,04260,04693,04421,04754,04564,04888,04014,04731,04139,04154,04484,04174,04758,04034,04085,04536,04914,04360,04664,04201,04172,04790,04366,04384,04835,04773,04857,04369,04981,04847,04197,04114,04863,04490,04458,04027,04610,04967,04470,04426,04345,04739,04429,04116,04319,04929,04547,04873,04406,04577,04548,04745,04021,04101,04311,04148,04797,04304,04804,04763,04637,04077,04943,04412,04680,04129,04705,04035,04875,04801,04280,04774,04912,04478,04258,04647,04501,04990,04638,04676,04073,04200,04925,04541,04559,04454,04689,04786,04323,04561,04859,04475,04302,04511,04187,04380,04171,04748,04373,04226,04813,04738,04047,04843,04868,04575,04093,04687,04106,04874,04852,04256,04765,04932,04563,04751,04528,04611,04416,04170,04521,04992,04028,04509,04770,04006,04518,04419,04107,04494,04966,04978,04574,04167,04865,04354,04127,04709,04404,04227,04894,04218,04370,04452,04428,04067,04736,04191,04438,04332,04312,04246,04271,04884,04616,04662,04752,04995,04747,04145,04460,04030,04799,04515,04432,04479,04880,04522,04365,04591,04900,04194,04254,04654,04866,04103,04876,04750,04537,04833,04618,04508,04104,04153,04635,04415,04949,04979,04075,04948,04070,04062,04142,04355,04679,04538,04729,04442,04810,04792,04414,04727,04506,04826,04485,04955,04845,04423,04505,04819,04922,04163,04225,04551,04841,04088,04923,04530,04055,04576,04483,04409,04476,04828,04080,04661,04309,04533,04531,04134,04668,04333,04725,04608,04376,04677,04317,04543,04612,04322,04514,04471,04224,04217,04177,04161,04237,04881,04671,04580,04805,04771,04368,04916,04216,04766,04339,04455,04137,04844,04724,04817,04239,04908,04593,04862,04910,04389,04794,04636,04970,04013,04546,04702,04378,04235,04692,04003,04870,04298,04985,04292,04861,04110,04502,04570,04920,04600,04392,04584,04417,04846,04207,04278,04798,04261,04169,04059,04595,04032,04356,04199,04095,04897,04898,04045,04168,04756,04598,04840,04120,04379,04328,04824,04734,04998,04749,04005,04793,04814,04853,04259,04186,04112,04288,04614,04198,04042,04976,04927,04214,04094,04108,04544,04830,04581,04787,04403,04410,04641,04867,04084,04155,04052,04716,04250,04316,04089,04697,04391,04219,04257,04663,04609,04364,04401,04165,04274,04176,04444,04449,04926,04605,04078,04399,04270,04909,04400,04213,04010,04002,04632,04352,04827,04917,04223,04437,04587,04956,04658,04905,04037,04424,04299,04818,04046,04431,04109,04492,04772,04247,04713,04585,04238,04211,04812,04196,04606,04941,04781,04907,04441,04648,04375,04180,04331,04234,04063,04520,04496,04623,04696,04594,04179,04603,04065,04276,04156,04443,04523,04351,04726,04811,04659,04473,04020,04314,04346,04526,04886,04560,04562,04899,04004,04162,04660,04097,04125,04390,04193,04420,04855,04023,04931,04463,04181,04244,04300,04717,04056,04776,04762,04385,04733,04189,04613,04343,04361,04350,04890,04742,04968,04305,04313,04263,04308,04337,04839,04583,04977,04516,04741,04849,04269,04950,04440,04422,04348,04883,04118,04130,04624,04838,04115,04036,04711,04306,04586,04761,04382,04099,04393,04911,04315,04617,04851,04953,04031,04178,04820,04982,04816,04367,04327,04653,04800,04447,04622,04474,04634,04973,04569,04310,04499,04896,04573,04796,04396,04459,04387,04326,04682,04952,04960,04665,04708,04951,04465,04903,04255,04126,04795,04307,04135,04151,04834,04690,04842,04119,04902,04140,04330,04933,04061,04133,04220,04016,04184,04128,04633,04012,04495,04293,04879,04994,04712,04210,04860,04553,04983,04124,04024,04962,04279,04698,04450,04655,04285,04688,04788,04599,04372,04240,04667,04710,04468,04117,04407,04778,04245,04937,04291,04759,04033,04743,04296,04123,04850,04069,04673,04301,04997,04394,04251,04493,04413,04427,04678,04481,04627,04243,04281,04477,04532,04808,04248,04472,04649,04999,04009,04889,04242,04457,04143,04188,04565,04836,04651,04539,04092,04639,04451,04961,04730,04082,04482,04691,04489,04068,04060,04935,04051,04405,04568,04971,04755,04882,04195,04111,04918,04989,04408,04969,04321,04029,04083,04856,04893,04806,04202,04358,04096,04040,04728,04683,04144,04303,04768,04266,04604,04363,04944,04467,04113,04540,04550,04102,04681,04498,04273,04435,04159,04921,04146,04940,04398,04858,04395,04175,04572,04625,04411,04418,04287,04131,04000,04760,04436,04500,04620,04519,04342,04965,04807,04815,04646,04205,04231,04746,04619,04984,04338,04592,04848,04430,04149,04208,04183,04434,04487,04141,04340,04264,04993,04147,04204,04602,04388,04946,04721,04964,04439,04277,04053,04166,04041,04253,04081,04588,04386,04491,04596,04262,04397,04524,04318,04554,04272,04707,04232,04895,04675,04871,13838,13693,13457,13835,13273,13883,13699,13999,13129,13127,13616,13299,13974,13722,13249,13020,13952,13886,13959,13592,13821,13759,13038,13625,13105,13252,13135,13103,13922,13062,13354,13833,13781,13902,13599,13026,13774,13619,13896,13018,13052,13611,13142,13581,13676,13438,13197,13508,13743,13455,13841,13982,13194,13144,13753,13083,13905,13820,13305,13227,13776,13134,13429,13721,13531,13086,13877,13552,13482,13460,13260,13364,13024,13702,13006,13911,13262,13668,13547,13763,13985,13241,13108,13567,13242,13077,13840,13647,13798,13169,13493,13605,13131,13422,13246,13276,13201,13436,13923,13315,13209,13016,13726,13538,13154,13760,13622,13627,13904,13580,13199,13634,13837,13434,13352,13095,13509,13465,13659,13681,13489,13549,13560,13344,13432,13230,13140,13524,13426,13913,13565,13876,13609,13332,13747,13638,13712,13311,13859,13200,13272,13970,13032,13278,13067,13392,13764,13430,13150,13946,13633,13767,13777,13866,13418,13474,13350,13235,13541,13176,13132,13540,13621,13256,13997,13371,13296,13125,13469,13213,13848,13270,13226,13783,13109,13147,13351,13780,13001,13191,13419,13118,13345,13944,13439,13466,13725,13696,13435,13161,13664,13078,13063,13872,13529,13996,13292,13424,13976,13210,13711,13336,13954,13576,13751,13937,13535,13079,13223,13520,13745,13675,13408,13943,13212,13021,13483,13136,13506,13384,13097,13291,13771,13148,13755,13152,13813,13353,13649,13462,13850,13761,13162,13669,13467,13441,13037,13788,13887,13956,13875,13977,13716,13014,13375,13689,13206,13847,13894,13874,13577,13690,13579,13504,13363,13666,13863,13091,13453,13701,13473,13601,13929,13036,13936,13468,13164,13708,13532,13004,13440,13631,13368,13527,13514,13873,13684,13382,13642,13658,13768,13595,13238,13710,13620,13416,13290,13073,13756,13673,13055,13015,13853,13389,13691,13678,13314,13915,13994,13271,13240,13665,13244,13114,13331,13882,13121,13683,13724,13130,13360,13347,13208,13843,13214,13800,13093,13831,13596,13534,13564,13123,13969,13415,13281,13149,13323,13310,13361,13399,13910,13216,13471,13448,13285,13337,13878,13795,13297,13790,13648,13189,13057,13973,13009,13151,13723,13034,13503,13864,13450,13464,13578,13117,13092,13343,13478,13179,13133,13023,13053,13928,13951,13168,13551,13495,13282,13402,13174,13119,13428,13120,13308,13253,13670,13899,13572,13283,13017,13391,13202,13498,13050,13632,13748,13881,13732,13993,13903,13165,13383,13703,13481,13279,13656,13485,13388,13968,13844,13507,13987,13672,13692,13031,13326,13758,13573,13080,13413,13962,13066,13643,13407,13394,13008,13190,13738,13615,13891,13163,13090,13107,13555,13367,13889,13818,13916,13010,13205,13988,13146,13674,13935,13964,13338,13447,13033,13051,13704,13203,13942,13028,13925,13559,13486,13921,13816,13059,13479,13317,13178,13792,13825,13770,13220,13785,13521,13255,13597,13254,13198,13025,13228,13365,13867,13346,13122,13349,13393,13472,13539,13012,13924,13221,13071,13667,13306,13330,13480,13575,13752,13387,13374,13885,13610,13423,13275,13366,13061,13992,13085,13277,13516,13106,13720,13386,13730,13528,13762,13263,13765,13313,13300,13901,13087,13574,13400,13986,13709,13322,13787,13719,13193,13370,13645,13327,13490,13682,13269,13116,13011,13938,13000,13918,13274,13180,13396,13381,13229,13558,13978,13832,13157,13600,13602,13803,13735,13569,13284,13247,13706,13513,13941,13410,13341,13356,13829,13940,13496,13333,13861,13898,13329,13497,13492,13019,13809,13931,13217,13505,13909,13608,13029,13680,13139,13302,13801,13561,13261,13526,13044,13111,13713,13519,13947,13378,13966,13173,13459,13056,13265,13502,13823,13245,13110,13362,13775,13979,13340,13076,13852,13409,13082,13983,13288,13933,13865,13182,13995,13854,13075,13099,13860,13629,13268,13934,13961,13237,13543,13298,13065,13741,13096,13700,13554,13231,13160,13390,13810,13613,13562,13309,13167,13100,13186,13425,13939,13185,13098,13545,13207,13766,13104,13138,13307,13784,13546,13112,13618,13334,13663,13022,13839,13981,13950,13858,13035,13239,13359,13773,13047,13403,13814,13626,13236,13355,13728,13446,13812,13897,13251,13646,13463,13890,13454,13530,13677,13817,13537,13397,13030,13449,13568,13855,13013,13074,13380,13002,13069,13782,13188,13304,13920,13652,13550,13815,13054,13686,13287,13512,13088,13542,13170,13742,13215,13612,13443,13184,13342,13192,13871,13328,13494,13461,13757,13754,13746,13912,13697,13953,13945,13211,13487,13769,13786,13158,13301,13870,13510,13094,13444,13842,13637,13635,13412,13187,13511,13589,13289,13586,13661,13257,13736,13286,13671,13113,13826,13598,13500,13442,13499,13445,13869,13204,13303,13043,13687,13233,13316,13566,13395,13385,13717,13484,13280,13926,13900,13590,13318,13862,13715,13172,13630,13458,13857,13437,13778,13958,13960,13431,13955,13617,13166,13556,13404,13830,13679,13571,13518,13027,13259,13258,13653,13089,13357,13491,13401,13414,13321,13806,13636,13102,13294,13195,13845,13377,13644,13072,13639,13685,13048,13849,13603,13868,13948,13181,13772,13225,13705,13145,13662,13641,13991,13335,13879,13907,13888,13312,13971,13789,13267,13660,13007,13141,13523,13398,13264,13470,13980,13060,13339,13406,13049,13219,13515,13808,13101,13155,13005,13358,13654,13411,13379,13042,13234,13517,13927,13064,13153,13975,13594,13124,13417,13655,13348,13137,13727,13650,13805,13990,13740,13591,13714,13477,13811,13607,13583,13737,13243,13325,13614,13834,13250,13039,13893,13729,13908,13824,13041,13880,13695,13156,13892,13553,13731,13126,13914,13628,13963,13989,13420,13949,13369,13822,13427,13319,13846,13836,13739,13906,13779,13930,13476,13433,13372,13819,13750,13749,13536,13128,13143,13266,13320,13688,13084,13827,13040,13177,13584,13802,13794,13159,13421,13624,13218,13807,13707,13548,13324,13851,13115,13295,13984,13604,13972,13563,13718,13804,13068,13733,13171,13895,13232,13856,13557,13081,13544,13293,13965,13452,13623,13248,13828,13475,13917,13376,13222,13196,13373,13606,13932,13744,13919,13651,13525,13456,13058,13957,13640,13224,13694,13501,13998,13451,13593,13003,13405,13582,13183,13884,13657,13698,13585,13488,13175,13070,13045,13734,13588,13570,13046,13533,13587,13967,13522,18874,18132,18723,18402,18516,18011,18181,18458,18306,18959,18333,18899,18468,18752,18547,18632,18111,18331,18017,18057,18168,18357,18786,18040,18704,18021,18816,18939,18045,18250,18565,18721,18221,18667,18016,18082,18386,18476,18455,18467,18801,18925,18817,18603,18176,18165,18796,18956,18068,18629,18222,18825,18669,18159,18092,18519,18644,18554,18658,18224,18490,18405,18343,18514,18410,18657,18921,18153,18083,18651,18525,18043,18870,18247,18859,18172,18811,18353,18537,18266,18592,18263,18781,18926,18790,18288,18872,18105,18892,18120,18938,18379,18065,18736,18471,18999,18544,18523,18726,18279,18901,18432,18194,18843,18309,18186,18466,18108,18450,18650,18853,18170,18144,18792,18158,18638,18659,18334,18220,18101,18798,18504,18584,18918,18149,18146,18316,18167,18326,18541,18118,18160,18983,18104,18849,18457,18730,18317,18406,18396,18366,18646,18952,18277,18073,18733,18048,18036,18674,18315,18890,18478,18560,18032,18237,18384,18259,18556,18383,18583,18349,18543,18236,18064,18122,18438,18741,18292,18293,18054,18460,18635,18401,18147,18738,18891,18042,18434,18014,18397,18689,18030,18595,18056,18175,18038,18912,18235,18981,18295,18313,18972,18807,18652,18422,18809,18189,18915,18077,18888,18482,18348,18215,18725,18356,18950,18124,18777,18472,18695,18992,18750,18270,18183,18842,18459,18729,18527,18881,18428,18774,18191,18720,18419,18112,18598,18982,18596,18234,18113,18232,18666,18529,18606,18211,18700,18051,18642,18831,18569,18978,18917,18867,18536,18001,18424,18580,18767,18479,18561,18093,18340,18734,18465,18634,18828,18593,18727,18312,18836,18562,18046,18613,18927,18775,18311,18308,18970,18969,18197,18027,18936,18747,18022,18445,18305,18289,18294,18496,18256,18962,18494,18441,18866,18188,18558,18563,18896,18070,18002,18873,18469,18206,18863,18545,18609,18864,18350,18698,18264,18035,18708,18447,18481,18686,18290,18906,18125,18977,18780,18846,18418,18740,18230,18717,18564,18028,18503,18003,18966,18868,18483,18367,18361,18505,18207,18897,18116,18673,18508,18627,18987,18138,18119,18690,18941,18417,18107,18437,18654,18377,18156,18662,18994,18063,18451,18375,18452,18839,18325,18497,18778,18620,18115,18062,18454,18568,18858,18219,18622,18231,18759,18678,18162,18549,18076,18991,18692,18993,18088,18524,18245,18531,18582,18827,18980,18989,18161,18973,18252,18878,18648,18751,18448,18148,18832,18837,18049,18039,18621,18126,18701,18521,18960,18238,18444,18208,18886,18327,18971,18037,18178,18683,18618,18773,18961,18102,18026,18004,18585,18539,18499,18399,18393,18354,18495,18371,18091,18546,18968,18015,18302,18748,18131,18291,18702,18553,18754,18935,18391,18061,18760,18044,18586,18803,18922,18084,18420,18216,18997,18321,18446,18018,18300,18255,18649,18096,18225,18487,18485,18169,18196,18488,18945,18749,18339,18706,18430,18716,18341,18364,18746,18174,18449,18710,18411,18213,18067,18228,18114,18486,18526,18368,18515,18407,18985,18834,18812,18254,18378,18285,18550,18143,18440,18680,18737,18923,18085,18883,18794,18732,18905,18241,18464,18342,18856,18601,18623,18824,18029,18742,18347,18785,18895,18286,18248,18214,18929,18942,18130,18489,18423,18605,18753,18974,18857,18976,18820,18470,18850,18984,18278,18155,18835,18511,18425,18314,18731,18195,18177,18885,18887,18949,18373,18602,18685,18840,18573,18071,18318,18142,18799,18201,18579,18145,18324,18693,18776,18154,18699,18267,18127,18789,18795,18012,18677,18829,18763,18387,18370,18136,18607,18212,18190,18210,18841,18055,18587,18413,18808,18227,18823,18408,18948,18261,18625,18157,18427,18661,18986,18910,18260,18229,18502,18532,18696,18975,18209,18095,18953,18081,18783,18276,18352,18852,18053,18639,18718,18822,18412,18735,18779,18684,18110,18954,18626,18066,18965,18336,18069,18557,18493,18392,18679,18815,18854,18380,18059,18552,18619,18957,18534,18123,18249,18351,18463,18246,18491,18520,18299,18217,18900,18612,18703,18611,18517,18913,18787,18439,18908,18588,18283,18072,18163,18616,18513,18933,18876,18173,18572,18711,18242,18226,18714,18359,18239,18681,18187,18645,18608,18394,18597,18884,18722,18845,18894,18574,18501,18791,18332,18712,18995,18087,18860,18814,18179,18369,18060,18050,18075,18691,18804,18346,18323,18865,18269,18771,18610,18415,18509,18542,18656,18739,18628,18275,18258,18265,18358,18304,18151,18329,18152,18301,18203,18090,18916,18456,18967,18192,18388,18298,18861,18319,18594,18133,18903,18522,18094,18844,18615,18025,18833,18802,18697,18106,18637,18031,18041,18705,18199,18512,18765,18204,18180,18435,18533,18442,18233,18770,18955,18800,18879,18320,18140,18338,18506,18847,18128,18663,18198,18398,18904,18129,18297,18193,18914,18010,18390,18724,18898,18013,18743,18433,18571,18943,18920,18578,18382,18575,18507,18762,18826,18830,18757,18880,18008,18078,18990,18653,18672,18416,18963,18782,18715,18474,18080,18271,18205,18576,18007,18998,18643,18591,18838,18624,18280,18287,18768,18251,18137,18303,18668,18758,18805,18184,18462,18372,18023,18518,18940,18604,18185,18919,18810,18928,18566,18395,18540,18360,18166,18019,18675,18498,18590,18671,18555,18946,18909,18086,18664,18559,18202,18944,18687,18268,18281,18951,18171,18871,18139,18709,18756,18262,18121,18813,18404,18020,18877,18477,18322,18964,18875,18931,18117,18924,18528,18310,18296,18480,18806,18345,18337,18431,18869,18772,18005,18911,18784,18600,18282,18797,18934,18253,18930,18589,18103,18947,18374,18818,18134,18058,18707,18475,18182,18400,18937,18344,18848,18009,18636,18284,18089,18365,18079,18655,18355,18500,18719,18766,18851,18548,18761,18694,18330,18484,18098,18244,18893,18000,18535,18769,18670,18821,18660,18274,18713,18617,18530,18097,18728,18640,18538,18426,18882,18819,18889,18034,18492,18862,18570,18362,18665,18581,18793,18744,18257,18473,18631,18755,18006,18243,18218,18381,18429,18414,18599,18443,18688,18099,18682,18272,18307,18109,18641,18902,18409,18389,18907,18630,18932,18764,18633,18647,18979,18436,18141,18385,18335,18363,18273,18240,18988,18453,18047,18551,18745,18461,18855,18376,18135,18577,18100,18223,18033,18676,18403,18421,18024,18996,18200,18052,18567,18328,18958,18788,18510,18614,18074,18164,21517,21093,21068,21498,21245,21834,21478,21201,21431,21194,21126,21314,21062,21483,21476,21039,21506,21290,21334,21766,21109,21179,21104,21641,21272,21219,21779,21757,21331,21120,21547,21067,21088,21605,21216,21778,21166,21612,21823,21090,21355,21724,21286,21357,21386,21631,21477,21390,21106,21669,21660,21378,21428,21622,21162,21509,21315,21115,21499,21434,21481,21050,21038,21400,21533,21042,21059,21486,21696,21087,21170,21149,21043,21292,21746,21552,21332,21493,21301,21594,21175,21384,21011,21196,21569,21627,21540,21073,21610,21740,21720,21281,21715,21701,21721,21663,21308,21683,21231,21613,21828,21776,21599,21305,21347,21554,21103,21113,21792,21224,21169,21824,21751,21777,21056,21463,21597,21153,21020,21758,21653,21652,21530,21668,21270,21393,21102,21542,21819,21536,21711,21645,21247,21101,21010,21667,21726,21296,21482,21072,21086,21763,21745,21148,21313,21024,21047,21381,21004,21396,21685,21180,21576,21642,21602,21389,21352,21141,21336,21041,21271,21045,21311,21177,21634,21727,21343,21327,21163,21110,21034,21794,21242,21037,21328,21189,21210,21280,21684,21376,21445,21252,21164,21479,21796,21306,21239,21092,21592,21217,21531,21367,21156,21587,21077,21255,21510,21358,21484,21821,21160,21240,21787,21625,21788,21706,21749,21372,21812,21071,21513,21176,21742,21748,21321,21207,21330,21690,21450,21640,21466,21382,21643,21504,21781,21807,21655,21670,21638,21214,21804,21049,21430,21133,21380,21268,21590,21817,21783,21190,21539,21568,21728,21833,21135,21002,21360,21564,21522,21405,21030,21420,21829,21730,21366,21410,21797,21637,21771,21604,21814,21341,21317,21316,21138,21228,21159,21051,21209,21458,21379,21387,21629,21651,21550,21418,21345,21767,21449,21091,21664,21241,21583,21171,21508,21029,21593,21326,21769,21818,21297,21285,21827,21323,21346,21269,21546,21211,21235,21021,21697,21333,21682,21620,21608,21596,21830,21521,21275,21415,21232,21495,21075,21657,21584,21184,21370,21567,21676,21703,21303,21277,21391,21085,21137,21246,21802,21709,21063,21438,21433,21591,21356,21187,21000,21559,21183,21006,21157,21131,21525,21417,21397,21739,21716,21273,21097,21549,21537,21759,21096,21775,21129,21635,21755,21309,21395,21233,21089,21573,21363,21618,21630,21258,21581,21770,21555,21076,21319,21744,21117,21650,21121,21647,21439,21208,21226,21516,21589,21429,21202,21338,21624,21632,21084,21754,21633,21351,21282,21480,21215,21263,21212,21462,21572,21465,21185,21069,21279,21491,21150,21198,21457,21206,21820,21710,21609,21741,21816,21474,21806,21057,21061,21229,21100,21541,21340,21636,21529,21687,21079,21361,21348,21421,21099,21107,21826,21601,21375,21472,21144,21553,21699,21204,21489,21689,21339,21761,21299,21298,21291,21515,21026,21675,21324,21765,21488,21649,21725,21040,21435,21374,21485,21518,21264,21836,21312,21574,21785,21665,21680,21561,21753,21455,21354,21155,21058,21192,21585,21545,21662,21259,21678,21293,21288,21811,21731,21368,21411,21713,21809,21136,21681,21733,21538,21186,21436,21717,21451,21729,21736,21168,21128,21404,21714,21036,21773,21672,21310,21060,21003,21558,21114,21151,21222,21548,21732,21307,21810,21362,21112,21692,21565,21197,21523,21579,21656,21446,21698,21046,21580,21756,21768,21677,21705,21388,21577,21606,21441,21535,21737,21623,21304,21318,21617,21118,21256,21146,21158,21230,21054,21260,21671,21702,21203,21644,21494,21738,21700,21532,21032,21182,21452,21615,21325,21402,21078,21408,21035,21074,21080,21448,21813,21803,21416,21795,21407,21188,21243,21028,21287,21008,21424,21500,21566,21501,21007,21342,21648,21221,21790,21154,21406,21557,21578,21734,21266,21200,21492,21105,21015,21496,21199,21251,21467,21544,21832,21335,21505,21722,21353,21459,21127,21695,21025,21764,21249,21227,21005,21095,21575,21582,21236,21461,21600,21628,21237,21134,21143,21009,21658,21789,21469,21780,21805,21719,21401,21774,21124,21468,21786,21588,21831,21686,21694,21223,21519,21172,21145,21693,21524,21447,21718,21119,21344,21799,21427,21369,21487,21679,21013,21016,21425,21808,21611,21673,21213,21142,21837,21001,21300,21507,21349,21825,21443,21261,21586,21514,21070,21399,21543,21560,21470,21801,21791,21373,21173,21398,21619,21052,21453,21614,21274,21322,21244,21337,21520,21248,21762,21735,21460,21019,21278,21409,21528,21329,21238,21570,21616,21442,21815,21320,21784,21195,21422,21289,21017,21412,21383,21257,21674,21750,21122,21178,21377,21294,21454,21423,21503,21365,21403,21191,21661,21800,21723,21413,21666,21139,21621,21022,21512,21437,21551,21267,21023,21772,21688,21234,21607,21371,21707,21743,21497,21116,21174,21752,21798,21534,21064,21364,21708,21225,21563,21490,21066,21385,21464,21646,21603,21527,21760,21639,21053,21475,21262,21125,21691,21471,21556,21359,21502,21055,21205,21444,21018,21140,21276,21392,21081,21426,21432,21193,21031,21793,21659,21218,21595,21295,21083,21254,21712,21526,21626,21044,21822,21782,21253,21562,21250,21152,21147,21167,21094,21747,21654,21165,21220,21284,21123,21283,21302,21014,21598,21835,21048,21419,21704,21440,21456,21098,21130,21108,21027,21082,21161,21033,21065,21350,21511,21414,21181,21473,21012,21111,21265,21394,21571,21132,07472,07249,07385,07778,07322,07760,07039,07928,07145,07251,07605,07216,07475,07362,07925,07109,07087,07398,07165,07752,07153,07097,07397,07652,07640,07316,07915,07570,07893,07245,07250,07237,07733,07562,07493,07169,07324,07601,07988,07550,07671,07569,07334,07556,07448,07811,07592,07255,07129,07766,07378,07072,07545,07007,07281,07986,07213,07534,07943,07843,07124,07118,07318,07175,07102,07028,07202,07019,07643,07110,07704,07372,07695,07095,07066,07823,07366,07684,07619,07625,07661,07352,07574,07234,07160,07204,07810,07279,07335,07848,07634,07992,07464,07410,07154,07226,07588,07320,07302,07781,07111,07544,07806,07284,07899,07062,07990,07505,07769,07321,07860,07061,07645,07931,07748,07034,07582,07474,07068,07345,07541,07150,07522,07679,07275,07547,07851,07783,07126,07585,07626,07815,07004,07481,07717,07029,07243,07283,07148,07793,07484,07589,07584,07888,07976,07462,07863,07037,07067,07630,07254,07133,07885,07331,07981,07946,07089,07142,07025,07504,07456,07609,07405,07840,07071,07246,07959,07966,07648,07824,07651,07328,07889,07309,07413,07244,07797,07738,07941,07894,07764,07451,07176,07948,07508,07722,07660,07831,07419,07045,07224,07969,07509,07393,07207,07356,07862,07822,07500,07196,07646,07503,07229,07688,07209,07357,07709,07152,07157,07965,07617,07114,07208,07359,07543,07864,07473,07649,07035,07792,07402,07257,07655,07502,07443,07714,07873,07497,07999,07458,07565,07222,07358,07807,07437,07587,07494,07690,07092,07698,07743,07572,07197,07678,07476,07000,07934,07804,07296,07287,07008,07835,07669,07163,07225,07215,07075,07763,07210,07327,07212,07218,07461,07465,07375,07403,07090,07821,07219,07987,07051,07096,07479,07727,07450,07449,07814,07929,07683,07513,07238,07614,07017,07674,07870,07086,07303,07996,07924,07498,07271,07694,07518,07984,07623,07927,07065,07261,07421,07220,07967,07457,07407,07166,07256,07560,07325,07729,07930,07653,07112,07117,07853,07365,07415,07523,07604,07746,07501,07417,07023,07300,07182,07173,07143,07373,07602,07549,07264,07233,07755,07295,07314,07846,07662,07615,07054,07469,07819,07918,07768,07162,07983,07947,07841,07923,07970,07490,07286,07553,07839,07867,07715,07883,07480,07266,07834,07147,07829,07342,07379,07805,07337,07278,07267,07477,07784,07579,07595,07228,07400,07905,07616,07730,07262,07136,07591,07168,07593,07441,07721,07134,07573,07050,07368,07418,07774,07190,07206,07968,07611,07217,07681,07177,07776,07252,07179,07285,07833,07239,07079,07607,07737,07754,07488,07454,07700,07902,07346,07184,07772,07676,07370,07263,07088,07608,07119,07802,07276,07026,07265,07697,07638,07319,07483,07693,07511,07956,07554,07344,07951,07742,07181,07677,07566,07447,07058,07022,07664,07998,07033,07104,07377,07908,07817,07563,07486,07624,07424,07273,07005,07298,07830,07732,07185,07404,07958,07178,07696,07041,07046,07436,07016,07837,07711,07852,07009,07827,07621,07735,07597,07159,07753,07723,07355,07820,07125,07997,07809,07702,07771,07289,07187,07538,07010,07411,07038,07933,07962,07780,07015,07512,07775,07059,07422,07960,07132,07392,07174,07383,07710,07205,07399,07230,07313,07971,07995,07577,07949,07828,07482,07666,07172,07564,07872,07149,07414,07391,07120,07865,07434,07430,07350,07686,07559,07091,07803,07641,07911,07301,07658,07528,07192,07085,07084,07141,07268,07047,07708,07718,07435,07939,07223,07444,07871,07798,07292,07332,07600,07363,07052,07431,07916,07425,07750,07326,07759,07057,07317,07158,07389,07898,07854,07884,07767,07728,07673,07006,07917,07103,07770,07100,07922,07347,07195,07348,07952,07420,07189,07725,07116,07656,07850,07598,07304,07240,07744,07895,07390,07311,07909,07816,07907,07734,07315,07973,07471,07466,07093,07516,07123,07274,07468,07310,07340,07977,07115,07546,07113,07963,07384,07293,07740,07535,07557,07938,07879,07580,07070,07446,07049,07232,07524,07825,07765,07552,07668,07789,07374,07689,07982,07631,07620,07813,07032,07198,07056,07896,07791,07637,07221,07613,07790,07855,07904,07703,07060,07719,07826,07692,07235,07701,07343,07670,07937,07396,07787,07014,07726,07140,07858,07682,07078,07083,07199,07200,07699,07012,07442,07590,07910,07527,07519,07367,07724,07945,07040,07632,07259,07596,07906,07942,07857,07455,07751,07193,07003,07146,07741,07520,07330,07401,07048,07131,07297,07881,07993,07747,07507,07108,07470,07739,07121,07795,07659,07445,07526,07531,07859,07308,07935,07561,07082,07201,07489,07167,07227,07756,07076,07382,07277,07636,07736,07555,07532,07161,07042,07568,07428,07180,07001,07989,07812,07282,07610,07360,07105,07183,07043,07478,07644,07529,07900,07932,07036,07675,07031,07073,07349,07151,07122,07800,07877,07514,07371,07440,07913,07953,07506,07757,07849,07127,07731,07794,07270,07242,07685,07876,07429,07713,07845,07539,07691,07485,07253,07290,07369,07603,07866,07030,07642,07537,07135,07571,07882,07622,07745,07376,07897,07540,07463,07387,07027,07985,07495,07869,07496,07773,07312,07248,07974,07687,07844,07663,07323,07063,07258,07586,07530,07306,07581,07979,07053,07838,07055,07288,07665,07423,07137,07395,07155,07818,07861,07583,07629,07074,07955,07521,07144,07107,07467,07890,07796,07542,07599,07680,07903,07716,07024,07628,07868,07856,07801,07191,07138,07081,07194,07901,07536,07099,07426,07361,07875,07786,07880,07241,07991,07762,07412,07186,07098,07517,07307,07980,07954,07432,07612,07018,07891,07011,07972,07299,07533,07171,07394,07618,07406,07936,07409,07978,07002,07919,07525,07094,07836,07214,07211,07705,07950,07439,07706,07280,07491,07130,07510,07639,07944,07635,07452,07886,07761,07551,07453,07920,07558,07170,07416,07578,07548,07567,07657,07021,07975,07260,07887,07627,07654,07758,07914,07064,07069,07785,07364,07272,07633,07594,07487,07912,07667,07203,07712,07832,07338,07672,07492,07515,07106,07333,07874,07460,07305,07650,07188,07707,07291,07842,07575,07878,07940,07847,07236,07921,07788,07080,07231,07386,07351,07077,07499,07101,07994,07799,07156,07408,07013,07336,07128,07341,07339,07438,07433,07808,07380,07459,07749,07961,07647,07044,07964,07020,07427,07353,07164,07269,07388,07926,07720,07294,07957,07247,07576,07381,07892,07329,07354,07606,07139,19528,19115,19600,19875,19188,19530,19547,19608,19770,19173,19264,19971,19345,19620,19694,19605,19006,19678,19056,19399,19244,19754,19746,19526,19460,19235,19733,19392,19843,19829,19382,19465,19359,19504,19127,19187,19049,19226,19185,19512,19777,19247,19563,19038,19393,19769,19372,19033,19916,19611,19947,19582,19719,19075,19272,19406,19850,19646,19911,19473,19069,19567,19675,19573,19580,19565,19450,19570,19860,19411,19532,19467,19220,19027,19873,19111,19213,19217,19237,19408,19255,19314,19949,19482,19924,19518,19370,19315,19281,19062,19943,19106,19354,19102,19280,19418,19488,19545,19435,19968,19275,19759,19668,19159,19762,19071,19437,19470,19347,19238,19747,19738,19670,19154,19332,19058,19431,19026,19045,19749,19718,19008,19682,19452,19365,19660,19920,19659,19279,19704,19559,19289,19851,19730,19845,19445,19013,19544,19079,19892,19939,19243,19176,19633,19146,19349,19484,19259,19586,19114,19090,19202,19319,19671,19054,19378,19863,19951,19515,19152,19021,19854,19186,19081,19726,19196,19674,19767,19362,19210,19696,19485,19524,19921,19988,19379,19934,19866,19199,19183,19172,19963,19233,19651,19803,19184,19543,19295,19714,19011,19201,19681,19034,19030,19047,19557,19572,19303,19950,19093,19828,19494,19358,19105,19073,19426,19649,19001,19700,19493,19542,19076,19444,19566,19139,19944,19656,19421,19078,19740,19835,19883,19326,19728,19901,19720,19937,19060,19166,19363,19222,19684,19594,19364,19422,19341,19440,19771,19335,19592,19258,19301,19503,19695,19323,19831,19100,19068,19554,19007,19456,19811,19653,19796,19884,19865,19257,19519,19067,19876,19742,19945,19612,19505,19262,19862,19706,19207,19912,19486,19297,19089,19721,19899,19507,19366,19510,19451,19084,19309,19893,19783,19705,19129,19897,19548,19337,19815,19625,19200,19806,19300,19613,19019,19880,19809,19702,19511,19930,19673,19531,19818,19795,19856,19932,19686,19453,19959,19616,19846,19216,19805,19260,19994,19137,19926,19955,19758,19261,19066,19953,19661,19130,19604,19471,19291,19642,19827,19041,19416,19028,19872,19133,19164,19905,19091,19122,19036,19679,19832,19502,19962,19975,19286,19792,19833,19064,19072,19481,19124,19283,19170,19715,19839,19302,19976,19224,19025,19685,19948,19121,19781,19189,19140,19622,19369,19985,19284,19454,19506,19298,19609,19799,19466,19927,19748,19391,19564,19697,19909,19044,19252,19698,19311,19179,19320,19631,19472,19040,19960,19098,19729,19576,19998,19274,19376,19108,19751,19477,19208,19012,19163,19890,19970,19480,19591,19628,19606,19791,19004,19986,19819,19981,19236,19891,19321,19902,19664,19340,19324,19037,19051,19395,19669,19020,19658,19158,19857,19403,19343,19569,19690,19626,19250,19536,19397,19688,19639,19848,19135,19822,19387,19415,19894,19018,19579,19938,19731,19636,19852,19665,19618,19617,19779,19513,19381,19377,19430,19380,19732,19413,19065,19331,19597,19138,19462,19844,19175,19587,19778,19031,19888,19535,19585,19635,19672,19419,19169,19910,19214,19215,19711,19743,19555,19965,19864,19556,19433,19032,19356,19881,19492,19443,19489,19059,19521,19373,19057,19181,19630,19648,19868,19325,19428,19116,19094,19357,19607,19772,19812,19666,19003,19346,19204,19223,19763,19615,19699,19722,19000,19394,19221,19160,19251,19560,19351,19683,19983,19571,19265,19775,19561,19816,19995,19768,19117,19958,19817,19546,19638,19858,19401,19588,19193,19386,19826,19149,19442,19455,19599,19752,19420,19760,19048,19969,19629,19957,19288,19390,19423,19966,19171,19736,19972,19017,19785,19813,19793,19085,19203,19043,19405,19082,19614,19112,19276,19148,19662,19709,19046,19692,19800,19096,19602,19155,19035,19268,19269,19691,19707,19285,19804,19954,19496,19353,19847,19667,19837,19299,19412,19889,19784,19499,19005,19402,19157,19088,19246,19823,19254,19623,19229,19436,19979,19878,19374,19654,19885,19080,19307,19596,19002,19313,19240,19103,19757,19500,19109,19050,19144,19239,19640,19342,19575,19840,19195,19773,19598,19717,19029,19956,19946,19131,19118,19898,19294,19053,19449,19241,19498,19042,19727,19644,19329,19371,19061,19801,19874,19797,19277,19339,19610,19516,19245,19710,19522,19424,19650,19167,19464,19859,19206,19825,19578,19577,19253,19737,19993,19992,19933,19205,19432,19882,19162,19915,19508,19145,19211,19161,19153,19330,19663,19352,19929,19712,19134,19867,19701,19074,19086,19514,19989,19657,19538,19191,19475,19458,19935,19478,19388,19463,19529,19271,19634,19009,19782,19838,19725,19282,19637,19334,19590,19655,19177,19952,19913,19225,19619,19328,19855,19368,19219,19871,19407,19879,19165,19632,19814,19095,19194,19931,19593,19842,19537,19680,19168,19350,19744,19977,19997,19296,19142,19417,19723,19761,19425,19550,19278,19293,19558,19790,19410,19869,19338,19689,19739,19549,19774,19273,19601,19627,19527,19367,19861,19996,19964,19645,19581,19234,19336,19143,19523,19589,19810,19434,19643,19128,19361,19141,19483,19724,19886,19677,19476,19802,19312,19429,19228,19703,19750,19708,19936,19906,19647,19178,19849,19070,19509,19024,19765,19621,19716,19132,19533,19355,19693,19087,19928,19525,19385,19333,19249,19745,19887,19908,19123,19903,19077,19318,19125,19446,19389,19497,19917,19568,19824,19308,19755,19967,19099,19384,19305,19270,19914,19101,19292,19991,19807,19438,19266,19023,19248,19870,19360,19110,19400,19990,19541,19641,19925,19687,19834,19218,19016,19304,19853,19396,19553,19753,19316,19479,19942,19039,19398,19230,19540,19919,19404,19263,19310,19786,19495,19457,19820,19501,19603,19961,19015,19212,19120,19595,19052,19676,19197,19539,19900,19414,19192,19375,19014,19982,19107,19150,19231,19469,19491,19242,19877,19941,19517,19063,19151,19209,19104,19973,19348,19999,19427,19551,19198,19789,19562,19119,19734,19584,19097,19441,19126,19756,19652,19830,19987,19940,19974,19232,19490,19798,19766,19808,19317,19836,19780,19180,19520,19290,19474,19113,19907,19055,19156,19713,19306,19461,19459,19174,19344,19904,19092,19439,19383,19841,19922,19468,19923,19487,19821,19918,19227,19794,19980,19735,19447,19448,19010,19788,19552,19776,19267,19182,19764,19190,19896,19083,19624,19409,19322,19136,19327,19895,19574,19984,19287,19147,19534,19741,19256,19787,19978,19583,19022,10136,10712,10778,10204,10923,10529,10785,10728,10645,10101,10210,10758,10848,10812,10073,10854,10137,10154,10580,10924,10047,10895,10841,10724,10283,10534,10819,10194,10169,10423,10401,10866,10232,10550,10438,10052,10901,10299,10966,10648,10493,10484,10255,10491,10189,10610,10050,10725,10467,10674,10086,10318,10253,10224,10609,10891,10075,10857,10453,10927,10977,10080,10569,10567,10808,10032,10454,10946,10530,10220,10584,10803,10987,10097,10248,10829,10549,10979,10262,10399,10689,10184,10088,10105,10069,10091,10294,10378,10126,10216,10487,10970,10878,10590,10830,10470,10688,10504,10083,10763,10575,10883,10489,10035,10264,10165,10336,10499,10816,10985,10640,10259,10818,10752,10658,10205,10929,10228,10057,10475,10949,10511,10844,10221,10268,10395,10437,10405,10770,10352,10947,10634,10719,10496,10756,10297,10261,10340,10250,10681,10315,10814,10629,10921,10542,10064,10998,10316,10180,10653,10350,10140,10365,10893,10596,10852,10690,10992,10219,10815,10065,10528,10616,10287,10309,10040,10936,10709,10310,10186,10515,10908,10411,10678,10825,10745,10181,10144,10524,10127,10750,10828,10900,10089,10362,10341,10510,10761,10545,10655,10134,10920,10691,10821,10477,10879,10207,10822,10527,10142,10025,10396,10865,10166,10994,10595,10185,10656,10811,10298,10432,10561,10566,10211,10986,10708,10766,10513,10464,10187,10558,10851,10967,10408,10739,10628,10100,10503,10600,10402,10838,10957,10741,10443,10046,10407,10874,10537,10907,10635,10235,10840,10152,10810,10158,10871,10482,10424,10506,10563,10794,10964,10557,10858,10121,10731,10179,10831,10034,10344,10565,10507,10980,10209,10598,10833,10367,10447,10849,10450,10720,10122,10241,10856,10234,10461,10007,10721,10383,10281,10393,10028,10392,10104,10413,10308,10710,10661,10369,10683,10116,10962,10019,10167,10960,10358,10682,10652,10084,10713,10039,10918,10351,10008,10442,10289,10913,10526,10230,10456,10948,10861,10458,10481,10381,10579,10066,10448,10533,10374,10357,10112,10746,10781,10940,10078,10751,10722,10620,10869,10302,10855,10123,10649,10124,10597,10677,10041,10329,10768,10312,10667,10767,10717,10092,10388,10693,10991,10380,10638,10398,10555,10045,10644,10449,10593,10191,10554,10917,10030,10914,10523,10950,10403,10147,10110,10129,10787,10975,10935,10113,10505,10397,10349,10419,10130,10490,10604,10679,10427,10627,10107,10955,10692,10826,10795,10641,10300,10285,10809,10319,10905,10784,10887,10668,10087,10422,10805,10361,10903,10335,10896,10418,10694,10197,10081,10847,10485,10796,10715,10328,10193,10607,10657,10343,10017,10015,10327,10971,10726,10954,10263,10051,10673,10974,10740,10145,10886,10277,10617,10931,10748,10714,10390,10492,10384,10254,10068,10990,10696,10284,10056,10473,10117,10606,10031,10870,10000,10460,10572,10675,10279,10774,10168,10267,10463,10589,10439,10807,10058,10754,10743,10956,10272,10174,10188,10244,10762,10782,10965,10570,10337,10703,10738,10773,10911,10348,10941,10611,10933,10915,10727,10813,10623,10894,10771,10867,10095,10753,10150,10093,10543,10989,10452,10588,10164,10202,10072,10978,10685,10718,10997,10663,10377,10755,10200,10218,10003,10972,10055,10070,10269,10684,10139,10389,10364,10018,10132,10053,10366,10963,10125,10109,10354,10618,10118,10564,10483,10759,10747,10605,10303,10552,10532,10732,10996,10899,10651,10790,10404,10571,10862,10536,10885,10347,10624,10910,10944,10932,10247,10937,10363,10672,10701,10146,10004,10786,10730,10547,10133,10412,10372,10959,10306,10062,10333,10806,10902,10723,10734,10036,10183,10296,10237,10387,10592,10687,10744,10265,10128,10172,10163,10760,10802,10001,10270,10198,10063,10892,10222,10278,10666,10010,10331,10943,10769,10143,10827,10033,10014,10022,10676,10577,10706,10096,10368,10409,10512,10417,10951,10587,10843,10553,10486,10416,10889,10042,10594,10742,10791,10614,10291,10780,10199,10556,10098,10495,10973,10853,10313,10888,10968,10428,10162,10249,10876,10737,10488,10958,10501,10215,10764,10160,10835,10239,10860,10469,10246,10406,10613,10995,10048,10148,10252,10192,10429,10382,10023,10430,10149,10952,10353,10518,10882,10360,10435,10804,10622,10338,10659,10414,10591,10251,10038,10508,10135,10699,10011,10157,10280,10938,10229,10823,10090,10111,10906,10012,10293,10455,10153,10471,10242,10582,10736,10479,10466,10664,10539,10410,10670,10548,10603,10217,10049,10509,10314,10643,10820,10544,10288,10897,10171,10930,10890,10196,10783,10559,10433,10671,10665,10274,10005,10680,10195,10546,10912,10330,10301,10446,10961,10156,10182,10304,10474,10373,10375,10074,10421,10839,10006,10779,10379,10206,10716,10621,10531,10793,10213,10984,10633,10257,10775,10286,10295,10602,10138,10085,10497,10170,10231,10772,10376,10521,10777,10305,10568,10586,10311,10016,10522,10027,10359,10697,10615,10711,10909,10916,10619,10993,10919,10517,10573,10332,10029,10551,10576,10535,10626,10099,10026,10115,10441,10370,10434,10872,10059,10801,10044,10342,10516,10391,10636,10837,10227,10159,10103,10271,10292,10236,10355,10631,10094,10999,10178,10608,10704,10735,10214,10478,10071,10776,10798,10077,10612,10632,10238,10540,10928,10574,10525,10201,10494,10339,10800,10749,10792,10079,10013,10562,10601,10346,10177,10420,10945,10922,10021,10868,10647,10707,10884,10646,10953,10846,10260,10472,10457,10106,10942,10625,10599,10082,10345,10881,10431,10842,10208,10519,10009,10925,10864,10067,10480,10102,10939,10875,10323,10076,10654,10845,10386,10290,10444,10662,10983,10258,10581,10400,10498,10705,10155,10176,10151,10981,10266,10585,10988,10445,10371,10131,10243,10223,10650,10282,10276,10729,10203,10926,10462,10114,10698,10859,10877,10061,10850,10173,10695,10307,10898,10275,10934,10273,10024,10356,10394,10120,10836,10500,10321,10037,10054,10637,10245,10797,10578,10415,10817,10175,10043,10757,10788,10976,10669,10520,10502,10733,10317,10799,10002,10385,10233,10824,10226,10020,10538,10982,10702,10225,10320,10660,10476,10440,10256,10541,10119,10141,10863,10161,10789,10873,10583,10425,10834,10326,10514,10700,10240,10560,10322,10426,10686,10060,10832,10325,10334,10880,10108,10190,10765,10630,10468,10969,10465,10451,10324,10212,10459,10904,10642,10436,10639,00433,00998,00539,00936,00864,00328,00011,00040,00420,00289,00975,00183,00700,00501,00295,00959,00082,00675,00495,00215,00494,00654,00985,00570,00031,00364,00383,00448,00687,00092,00033,00706,00334,00203,00188,00723,00165,00877,00166,00041,00280,00208,00398,00126,00735,00684,00487,00217,00109,00408,00808,00338,00902,00907,00967,00333,00378,00001,00544,00452,00932,00592,00070,00597,00189,00644,00259,00437,00770,00835,00490,00585,00805,00349,00607,00026,00995,00175,00838,00845,00075,00412,00427,00652,00536,00105,00679,00852,00256,00615,00149,00351,00077,00394,00265,00284,00022,00311,00209,00642,00042,00083,00602,00819,00768,00648,00091,00396,00540,00307,00221,00774,00106,00917,00426,00806,00868,00670,00650,00555,00463,00890,00516,00564,00122,00981,00622,00883,00410,00498,00117,00180,00202,00973,00409,00604,00703,00345,00918,00603,00994,00223,00863,00655,00304,00111,00104,00303,00483,00021,00496,00903,00129,00526,00765,00086,00618,00355,00207,00896,00237,00535,00649,00156,00089,00244,00962,00982,00094,00563,00915,00551,00081,00527,00187,00802,00643,00813,00755,00455,00267,00305,00524,00666,00315,00262,00343,00886,00569,00235,00686,00979,00736,00854,00547,00601,00822,00720,00984,00633,00870,00814,00858,00664,00146,00193,00285,00731,00831,00958,00674,00414,00337,00403,00711,00386,00842,00088,00944,00210,00931,00006,00121,00186,00997,00167,00710,00287,00012,00775,00415,00302,00047,00793,00051,00323,00991,00762,00509,00741,00752,00948,00492,00115,00945,00729,00590,00617,00090,00699,00061,00879,00395,00357,00005,00162,00761,00292,00499,00613,00074,00451,00332,00340,00560,00939,00769,00688,00374,00078,00582,00059,00038,00231,00788,00460,00611,00442,00367,00610,00916,00817,00871,00362,00286,00647,00116,00095,00505,00728,00009,00062,00366,00828,00892,00466,00013,00581,00685,00694,00004,00500,00855,00272,00220,00632,00865,00245,00818,00857,00517,00662,00010,00060,00987,00807,00314,00422,00066,00335,00447,00424,00861,00757,00571,00621,00713,00054,00191,00833,00608,00620,00098,00019,00748,00197,00480,00440,00820,00015,00391,00637,00725,00850,00406,00229,00913,00955,00966,00576,00402,00097,00595,00528,00910,00630,00190,00682,00577,00107,00478,00309,00928,00508,00557,00114,00379,00225,00271,00929,00297,00983,00930,00317,00605,00301,00049,00475,00014,00609,00672,00935,00640,00797,00827,00321,00230,00968,00123,00263,00052,00999,00988,00043,00777,00993,00201,00922,00798,00758,00683,00772,00545,00336,00681,00546,00888,00969,00698,00131,00771,00977,00889,00486,00625,00206,00946,00665,00329,00716,00789,00200,00232,00804,00419,00707,00749,00549,00718,00353,00515,00099,00810,00974,00449,00780,00464,00159,00393,00361,00446,00841,00708,00783,00085,00986,00372,00055,00387,00274,00960,00719,00878,00795,00096,00821,00743,00853,00900,00543,00434,00908,00407,00473,00170,00377,00056,00249,00941,00667,00154,00790,00567,00980,00949,00952,00671,00709,00906,00273,00701,00228,00860,00514,00976,00046,00641,00213,00376,00199,00147,00899,00538,00472,00832,00158,00194,00331,00893,00363,00634,00365,00216,00600,00469,00397,00358,00101,00484,00275,00847,00470,00102,00371,00204,00782,00153,00661,00251,00368,00246,00691,00750,00163,00017,00300,00290,00007,00057,00344,00873,00791,00599,00561,00342,00589,00236,00327,00992,00291,00065,00341,00548,00846,00953,00572,00168,00242,00226,00063,00510,00525,00299,00450,00690,00029,00562,00803,00639,00809,00825,00811,00316,00493,00990,00125,00628,00971,00657,00764,00961,00018,00584,00264,00612,00489,00919,00507,00381,00533,00310,00436,00712,00848,00270,00937,00296,00786,00401,00927,00502,00035,00045,00443,00258,00656,00247,00279,00020,00754,00673,00294,00192,00645,00037,00901,00064,00277,00799,00283,00692,00182,00559,00071,00133,00836,00313,00894,00938,00882,00924,00583,00575,00375,00382,00733,00339,00370,00869,00269,00767,00815,00558,00282,00248,00214,00619,00030,00195,00884,00760,00103,00185,00048,00350,00181,00432,00134,00511,00704,00268,00211,00016,00488,00737,00891,00506,00520,00160,00467,00753,00586,00354,00076,00288,00169,00476,00616,00261,00227,00471,00880,00174,00542,00678,00627,00598,00874,00032,00224,00537,00925,00308,00926,00348,00173,00176,00954,00058,00751,00568,00745,00876,00151,00824,00347,00911,00039,00400,00523,00044,00904,00591,00531,00128,00404,00895,00497,00695,00416,00504,00744,00474,00465,00957,00933,00784,00457,00862,00330,00144,00171,00072,00653,00689,00485,00843,00253,00243,00942,00970,00084,00079,00252,00635,00659,00829,00812,00444,00800,00255,00996,00359,00113,00669,00724,00529,00801,00851,00002,00482,00240,00696,00773,00435,00069,00439,00356,00875,00785,00390,00218,00198,00521,00196,00325,00093,00080,00120,00834,00940,00438,00306,00136,00766,00453,00322,00481,00518,00148,00693,00651,00530,00388,00238,00756,00241,00844,00830,00676,00150,00732,00281,00234,00278,00421,00250,00727,00385,00816,00025,00606,00956,00276,00050,00428,00205,00298,00964,00680,00157,00003,00425,00477,00747,00715,00734,00565,00742,00318,00722,00177,00389,00867,00373,00399,00360,00430,00179,00184,00658,00849,00024,00429,00626,00519,00034,00127,00320,00574,00623,00792,00631,00660,00859,00872,00978,00596,00352,00512,00923,00989,00087,00726,00028,00118,00781,00714,00132,00579,00739,00068,00566,00759,00588,00587,00554,00260,00746,00738,00909,00257,00897,00866,00392,00513,00963,00324,00532,00823,00135,00776,00677,00556,00108,00431,00266,00779,00972,00965,00914,00705,00008,00920,00522,00541,00417,00036,00411,00881,00638,00110,00885,00763,00219,00172,00254,00491,00067,00636,00445,00023,00073,00730,00319,00418,00826,00905,00233,00614,00138,00573,00778,00934,00124,00312,00161,00887,00239,00912,00468,00178,00898,00717,00787,00794,00222,00837,00697,00593,00951,00027,00053,00454,00594,00384,00100,00578,00155,00702,00580,00130,00943,00534,00293,00740,00839,00212,00796,00624,00346,00550,00629,00413,00164,00112,00950,00646,00405,00840,00856,00380,00326,00947,00503,00479,00423,00663,00152,00119,00369,00553,00552,00441,00921,00721,00668,12213,12375,12867,12353,12310,12551,12162,12733,12654,12048,12407,12722,12899,12161,12885,12214,12574,12594,12395,12740,12352,12331,12691,12428,12943,12641,12518,12814,12107,12962,12557,12884,12560,12121,12476,12628,12908,12396,12147,12207,12744,12336,12727,12349,12881,12478,12102,12883,12912,12250,12404,12852,12119,12837,12075,12242,12424,12015,12225,12590,12664,12669,12748,12261,12196,12492,12878,12109,12679,12050,12458,12133,12951,12934,12104,12156,12789,12058,12593,12370,12961,12360,12180,12036,12655,12192,12368,12034,12447,12862,12164,12582,12686,12750,12329,12990,12620,12049,12483,12080,12801,12335,12369,12954,12591,12423,12498,12822,12323,12226,12646,12023,12509,12894,12938,12833,12726,12840,12011,12647,12118,12374,12490,12126,12480,12311,12561,12449,12243,12111,12256,12898,12419,12900,12849,12012,12555,12624,12208,12875,12668,12241,12930,12873,12377,12949,12030,12588,12072,12173,12736,12287,12174,12563,12010,12304,12016,12649,12659,12114,12770,12996,12572,12413,12516,12437,12531,12254,12068,12128,12615,12037,12524,12325,12499,12086,12178,12179,12292,12709,12354,12125,12648,12639,12585,12530,12997,12027,12095,12536,12018,12764,12431,12397,12685,12229,12769,12373,12924,12966,12031,12521,12394,12846,12411,12459,12739,12918,12941,12297,12305,12850,12088,12784,12839,12638,12697,12467,12935,12056,12386,12473,12069,12233,12788,12440,12033,12421,12320,12405,12650,12280,12975,12831,12682,12702,12154,12197,12008,12457,12434,12061,12634,12248,12013,12045,12209,12511,12442,12802,12762,12705,12690,12519,12393,12401,12687,12794,12657,12052,12811,12778,12614,12937,12463,12199,12294,12312,12742,12021,12150,12082,12487,12919,12693,12915,12110,12028,12474,12212,12617,12343,12609,12026,12816,12843,12251,12946,12830,12231,12132,12182,12882,12595,12546,12272,12127,12074,12493,12188,12131,12265,12198,12947,12734,12520,12580,12255,12964,12779,12062,12014,12587,12399,12724,12098,12721,12782,12402,12965,12809,12616,12730,12389,12371,12113,12112,12813,12671,12417,12380,12232,12514,12695,12925,12468,12528,12823,12805,12728,12296,12673,12766,12175,12454,12812,12559,12415,12351,12288,12510,12234,12596,12067,12564,12974,12796,12776,12820,12426,12193,12187,12533,12581,12773,12495,12314,12146,12500,12211,12387,12660,12749,12670,12991,12887,12828,12672,12006,12987,12534,12124,12633,12418,12817,12268,12135,12761,12096,12038,12579,12960,12944,12571,12475,12929,12845,12159,12662,12453,12348,12046,12522,12116,12332,12904,12163,12755,12055,12760,12864,12800,12382,12926,12604,12071,12328,12089,12699,12818,12120,12408,12283,12167,12523,12291,12858,12149,12392,12714,12238,12148,12967,12032,12378,12819,12986,12469,12313,12093,12491,12092,12871,12863,12746,12435,12720,12316,12982,12355,12477,12841,12640,12989,12772,12409,12366,12708,12939,12489,12362,12326,12464,12836,12363,12565,12210,12184,12978,12346,12945,12618,12494,12723,12623,12462,12257,12644,12340,12552,12869,12576,12465,12857,12105,12043,12928,12892,12532,12364,12861,12896,12221,12239,12719,12948,12973,12568,12376,12706,12117,12932,12139,12957,12783,12631,12771,12700,12979,12680,12675,12895,12065,12768,12865,12543,12880,12656,12466,12710,12359,12806,12485,12502,12983,12420,12541,12318,12134,12151,12527,12547,12715,12757,12554,12001,12787,12952,12897,12306,12529,12566,12203,12259,12271,12803,12539,12274,12704,12902,12333,12870,12054,12141,12683,12825,12137,12963,12689,12977,12322,12278,12717,12022,12692,12087,12525,12632,12798,12920,12094,12160,12079,12626,12737,12158,12122,12361,12665,12792,12059,12592,12501,12775,12540,12144,12206,12461,12804,12889,12289,12281,12827,12309,12988,12652,12445,12339,12130,12456,12993,12731,12270,12398,12917,12106,12053,12060,12627,12441,12064,12854,12981,12220,12575,12622,12625,12508,12171,12019,12597,12538,12078,12903,12985,12284,12029,12140,12264,12342,12486,12853,12190,12186,12549,12247,12890,12907,12181,12968,12877,12504,12868,12959,12279,12479,12842,12195,12260,12694,12295,12219,12153,12913,12414,12716,12293,12645,12608,12605,12512,12299,12758,12701,12100,12599,12637,12923,12189,12317,12286,12995,12663,12194,12406,12950,12603,12619,12267,12824,12674,12544,12217,12290,12676,12980,12914,12797,12047,12470,12610,12090,12970,12661,12606,12041,12909,12327,12635,12921,12999,12577,12497,12315,12152,12741,12688,12747,12115,12218,12553,12955,12005,12667,12607,12430,12763,12774,12230,12201,12956,12070,12953,12000,12505,12215,12338,12725,12971,12781,12246,12183,12285,12611,12911,12143,12245,12851,12383,12235,12176,12583,12142,12228,12550,12345,12537,12249,12301,12910,12097,12390,12994,12108,12793,12081,12707,12777,12698,12460,12927,12681,12526,12319,12385,12388,12237,12136,12436,12002,12916,12129,12866,12859,12223,12630,12202,12752,12548,12269,12438,12308,12091,12756,12601,12807,12166,12847,12826,12066,12101,12443,12703,12754,12729,12901,12821,12844,12931,12433,12517,12718,12307,12513,12711,12334,12350,12815,12077,12879,12004,12936,12263,12083,12009,12367,12145,12276,12732,12940,12976,12177,12573,12507,12735,12035,12253,12063,12992,12759,12636,12244,12712,12165,12448,12040,12455,12751,12791,12780,12365,12324,12888,12337,12085,12535,12416,12503,12829,12696,12834,12584,12790,12073,12266,12567,12678,12835,12653,12330,12157,12810,12451,12488,12412,12341,12169,12403,12452,12381,12051,12205,12765,12391,12123,12472,12642,12558,12439,12429,12570,12432,12258,12658,12556,12017,12138,12099,12020,12922,12872,12832,12569,12155,12886,12427,12906,12542,12084,12515,12876,12044,12753,12400,12275,12222,12799,12039,12629,12379,12891,12300,12273,12042,12856,12893,12586,12025,12969,12227,12252,12236,12007,12666,12677,12484,12545,12168,12785,12356,12600,12303,12481,12745,12855,12224,12786,12170,12471,12562,12410,12578,12998,12425,12808,12262,12874,12185,12598,12643,12003,12357,12933,12384,12848,12240,12942,12358,12612,12984,12450,12321,12282,12200,12302,12347,12795,12905,12621,12204,12172,12422,12972,12024,12602,12767,12446,12651,12444,12958,12589,12738,12191,12076,12372,12506,12860,12057,12743,12496,12613,12713,12344,12277,12482,12216,12298,12103,12684,12838,11530,11958,11382,11591,11925,11437,11514,11609,11683,11691,11719,11491,11974,11888,11992,11531,11843,11327,11111,11924,11466,11363,11521,11168,11087,11571,11249,11227,11689,11592,11061,11115,11911,11664,11388,11107,11404,11575,11170,11608,11325,11574,11253,11780,11430,11080,11435,11881,11148,11211,11418,11695,11555,11468,11584,11651,11257,11271,11046,11400,11252,11194,11361,11668,11438,11473,11459,11520,11300,11500,11210,11333,11043,11846,11342,11129,11432,11045,11672,11487,11654,11475,11294,11545,11018,11397,11809,11549,11220,11176,11035,11889,11142,11585,11422,11154,11109,11615,11119,11972,11512,11564,11710,11602,11034,11947,11417,11303,11198,11950,11903,11304,11982,11856,11042,11640,11833,11202,11944,11991,11396,11186,11474,11409,11510,11030,11908,11754,11055,11576,11498,11904,11489,11028,11054,11713,11156,11851,11884,11455,11962,11768,11322,11295,11766,11936,11315,11831,11410,11762,11752,11102,11836,11015,11117,11901,11451,11367,11009,11674,11923,11963,11200,11657,11910,11362,11076,11016,11772,11445,11508,11880,11735,11990,11964,11550,11195,11005,11781,11221,11807,11737,11097,11770,11945,11213,11066,11022,11949,11496,11140,11961,11890,11384,11669,11345,11073,11490,11791,11942,11829,11085,11443,11959,11773,11580,11869,11706,11223,11635,11166,11182,11178,11497,11258,11318,11027,11425,11511,11434,11702,11246,11565,11493,11020,11788,11442,11886,11259,11914,11494,11893,11937,11134,11082,11131,11336,11819,11621,11920,11960,11666,11065,11544,11605,11103,11135,11495,11940,11335,11007,11095,11941,11340,11619,11420,11734,11896,11688,11094,11671,11634,11019,11543,11721,11371,11067,11394,11357,11642,11078,11458,11690,11118,11151,11933,11655,11190,11595,11238,11086,11617,11484,11786,11779,11716,11909,11324,11110,11929,11952,11452,11339,11112,11368,11935,11598,11349,11641,11139,11159,11032,11483,11540,11792,11509,11744,11808,11277,11799,11749,11208,11331,11160,11157,11245,11827,11421,11350,11578,11352,11756,11196,11216,11769,11625,11169,11647,11860,11354,11738,11794,11732,11624,11334,11589,11056,11646,11083,11092,11164,11553,11996,11308,11946,11687,11408,11798,11217,11538,11590,11866,11012,11714,11307,11667,11281,11450,11519,11748,11916,11823,11743,11248,11872,11266,11803,11439,11390,11240,11465,11467,11586,11547,11064,11183,11486,11402,11562,11725,11985,11453,11816,11835,11278,11954,11503,11144,11563,11854,11948,11226,11704,11859,11675,11988,11588,11873,11348,11244,11824,11537,11286,11541,11892,11461,11637,11546,11488,11158,11760,11287,11062,11891,11968,11986,11603,11736,11848,11187,11338,11636,11383,11594,11114,11343,11529,11698,11662,11965,11629,11822,11177,11905,11477,11777,11346,11123,11321,11705,11834,11596,11255,11081,11966,11805,11001,11712,11573,11707,11623,11610,11330,11632,11877,11128,11365,11108,11956,11317,11440,11113,11212,11524,11568,11010,11024,11265,11837,11462,11392,11068,11280,11844,11715,11800,11902,11918,11931,11620,11953,11039,11063,11804,11876,11381,11328,11448,11047,11699,11967,11729,11454,11525,11469,11207,11116,11842,11793,11678,11132,11269,11416,11778,11267,11740,11377,11639,11470,11222,11821,11347,11247,11681,11864,11999,11797,11504,11419,11606,11254,11241,11878,11526,11763,11502,11582,11622,11332,11206,11853,11407,11874,11499,11871,11501,11301,11552,11457,11074,11517,11293,11415,11847,11191,11395,11025,11053,11411,11272,11567,11072,11955,11236,11930,11364,11344,11161,11855,11830,11633,11431,11643,11149,11694,11677,11296,11299,11077,11041,11060,11389,11380,11987,11913,11631,11644,11312,11193,11711,11263,11372,11274,11850,11359,11205,11219,11787,11099,11393,11703,11883,11366,11795,11700,11155,11701,11037,11611,11755,11070,11649,11441,11726,11360,11932,11516,11774,11718,11472,11229,11297,11558,11600,11351,11090,11811,11978,11906,11355,11276,11444,11481,11414,11100,11630,11759,11663,11840,11224,11984,11559,11225,11528,11627,11845,11375,11323,11618,11478,11818,11849,11049,11036,11071,11146,11261,11387,11731,11270,11783,11204,11130,11751,11189,11613,11145,11319,11476,11289,11921,11928,11789,11865,11290,11167,11174,11218,11919,11199,11091,11670,11628,11436,11014,11185,11285,11994,11907,11305,11251,11682,11616,11406,11480,11173,11542,11021,11572,11079,11753,11427,11051,11471,11746,11995,11535,11482,11579,11513,11894,11002,11599,11607,11192,11197,11147,11802,11767,11975,11875,11981,11214,11153,11604,11093,11980,11291,11449,11096,11369,11806,11310,11742,11385,11612,11900,11292,11858,11887,11727,11264,11260,11708,11341,11088,11534,11973,11426,11288,11587,11106,11870,11353,11977,11268,11722,11679,11867,11424,11665,11951,11378,11557,11741,11446,11242,11180,11162,11522,11316,11728,11597,11626,11852,11098,11403,11262,11812,11376,11284,11938,11089,11532,11008,11673,11084,11785,11215,11429,11011,11917,11120,11399,11138,11556,11551,11739,11239,11370,11398,11724,11059,11386,11058,11507,11413,11069,11423,11697,11764,11232,11652,11971,11306,11029,11745,11311,11656,11723,11121,11882,11163,11175,11250,11676,11233,11548,11898,11614,11782,11057,11957,11593,11105,11358,11828,11863,11661,11048,11309,11464,11993,11653,11141,11539,11374,11970,11658,11934,11234,11523,11209,11709,11839,11412,11692,11758,11650,11790,11184,11686,11533,11143,11203,11922,11179,11017,11659,11006,11124,11033,11122,11581,11243,11302,11326,11314,11577,11137,11841,11275,11775,11895,11801,11172,11717,11976,11560,11373,11570,11784,11463,11023,11648,11601,11566,11279,11075,11638,11165,11939,11796,11282,11320,11747,11313,11757,11997,11152,11912,11696,11825,11761,11136,11879,11125,11527,11979,11133,11927,11126,11820,11104,11506,11915,11181,11660,11989,11771,11329,11684,11685,11515,11000,11044,11230,11813,11447,11765,11479,11228,11356,11826,11554,11040,11885,11150,11857,11428,11645,11433,11720,11536,11897,11899,11235,11004,11256,11337,11031,11832,11730,11861,11171,11733,11518,11026,11379,11050,11460,11283,11868,11561,11013,11456,11862,11492,11201,11231,11237,11998,11401,11101,11038,11405,11969,11485,11583,11926,11983,11052,11298,11273,11693,11569,11505,11391,11188,11750,11680,11943,11003,11127,11776,17640,17860,17118,17049,17635,17163,17300,17866,17452,17552,17644,17353,17759,17707,17650,17592,17263,17993,17517,17279,17374,17038,17102,17433,17581,17955,17356,17598,17227,17408,17266,17316,17342,17906,17429,17631,17199,17647,17589,17535,17733,17333,17946,17736,17858,17230,17302,17788,17402,17872,17157,17495,17914,17424,17916,17742,17264,17944,17398,17438,17991,17685,17601,17400,17779,17370,17500,17028,17574,17678,17543,17778,17887,17320,17101,17625,17942,17612,17839,17830,17231,17468,17082,17782,17665,17559,17748,17383,17725,17544,17134,17997,17329,17501,17131,17273,17040,17988,17026,17758,17507,17224,17397,17486,17560,17628,17113,17527,17529,17727,17460,17814,17080,17233,17485,17912,17643,17845,17505,17737,17834,17239,17122,17021,17358,17388,17042,17148,17069,17882,17924,17265,17053,17964,17326,17416,17349,17889,17680,17023,17823,17449,17337,17005,17204,17389,17708,17203,17284,17995,17690,17609,17981,17537,17917,17105,17242,17985,17046,17797,17475,17499,17573,17511,17387,17741,17124,17878,17386,17968,17498,17123,17661,17593,17874,17841,17188,17903,17477,17155,17251,17793,17355,17145,17030,17216,17210,17851,17846,17649,17540,17384,17395,17379,17219,17457,17721,17599,17534,17430,17848,17654,17555,17658,17570,17996,17275,17989,17977,17415,17947,17259,17885,17667,17743,17058,17992,17401,17327,17726,17321,17694,17591,17287,17562,17246,17668,17109,17503,17805,17524,17458,17172,17790,17325,17129,17853,17423,17404,17000,17137,17170,17542,17262,17278,17315,17905,17697,17439,17116,17125,17734,17294,17950,17705,17133,17730,17182,17010,17094,17091,17293,17150,17784,17789,17147,17186,17260,17192,17928,17818,17813,17459,17624,17751,17799,17476,17179,17024,17875,17740,17140,17070,17556,17922,17952,17686,17663,17520,17332,17677,17760,17840,17396,17672,17585,17431,17185,17919,17518,17065,17403,17149,17456,17071,17285,17531,17533,17935,17206,17943,17584,17167,17553,17496,17565,17621,17427,17623,17657,17852,17412,17820,17283,17859,17298,17739,17272,17923,17382,17983,17780,17280,17190,17308,17406,17921,17063,17250,17421,17027,17642,17976,17414,17826,17941,17232,17567,17951,17510,17761,17180,17956,17367,17876,17801,17639,17297,17545,17513,17596,17822,17925,17586,17933,17747,17576,17019,17143,17303,17033,17900,17844,17569,17746,17692,17735,17323,17451,17629,17007,17492,17896,17085,17645,17549,17173,17864,17883,17850,17020,17176,17719,17309,17003,17519,17522,17516,17539,17718,17521,17004,17465,17884,17974,17695,17130,17282,17299,17014,17106,17205,17197,17103,17317,17828,17261,17441,17722,17771,17819,17365,17971,17532,17791,17796,17066,17162,17648,17703,17493,17435,17610,17547,17009,17847,17018,17901,17313,17245,17920,17711,17138,17208,17798,17854,17100,17827,17538,17142,17062,17220,17202,17633,17936,17982,17506,17056,17588,17344,17257,17752,17836,17861,17248,17075,17966,17187,17687,17393,17473,17044,17579,17363,17931,17582,17096,17222,17756,17855,17117,17632,17110,17880,17550,17341,17141,17564,17627,17978,17637,17578,17709,17594,17237,17831,17455,17037,17691,17189,17335,17973,17466,17371,17481,17490,17104,17557,17781,17856,17713,17360,17368,17918,17863,17546,17729,17512,17419,17087,17209,17972,17411,17031,17177,17369,17306,17877,17679,17763,17045,17286,17765,17731,17949,17902,17749,17081,17225,17152,17683,17364,17986,17032,17792,17480,17343,17376,17888,17614,17132,17217,17619,17953,17666,17446,17630,17373,17235,17769,17558,17704,17073,17757,17074,17699,17776,17523,17267,17583,17144,17194,17945,17258,17183,17274,17077,17445,17312,17783,17785,17829,17399,17002,17590,17164,17426,17865,17175,17076,17392,17618,17048,17881,17843,17391,17892,17702,17417,17247,17296,17937,17447,17099,17607,17979,17652,17146,17160,17168,17606,17655,17252,17932,17324,17710,17488,17536,17816,17011,17698,17254,17998,17962,17322,17504,17487,17215,17849,17671,17469,17682,17804,17808,17745,17869,17083,17701,17755,17154,17169,17181,17832,17862,17911,17378,17777,17967,17159,17443,17461,17738,17054,17938,17372,17207,17898,17603,17810,17437,17715,17340,17166,17223,17970,17548,17277,17867,17674,17837,17613,17025,17126,17895,17107,17611,17276,17762,17994,17604,17090,17580,17910,17508,17620,17894,17815,17676,17339,17050,17201,17108,17509,17226,17572,17067,17051,17930,17669,17348,17948,17442,17563,17891,17114,17774,17017,17720,17394,17660,17043,17987,17886,17375,17195,17670,17768,17301,17346,17786,17824,17249,17497,17957,17016,17198,17929,17214,17651,17093,17064,17464,17068,17078,17622,17444,17714,17696,17156,17795,17015,17890,17595,17641,17626,17407,17097,17732,17029,17980,17158,17959,17913,17244,17835,17615,17052,17939,17744,17811,17909,17551,17833,17236,17135,17200,17484,17958,17571,17218,17675,17857,17764,17969,17238,17221,17377,17191,17515,17354,17821,17055,17470,17489,17750,17006,17292,17482,17554,17128,17350,17336,17656,17418,17001,17036,17908,17662,17728,17653,17095,17577,17281,17057,17716,17802,17193,17432,17753,17330,17314,17410,17494,17984,17409,17178,17436,17706,17305,17288,17636,17817,17352,17897,17638,17491,17086,17754,17605,17688,17934,17454,17807,17999,17907,17119,17960,17767,17234,17331,17061,17184,17766,17440,17502,17228,17926,17450,17362,17084,17072,17098,17659,17271,17359,17514,17724,17196,17448,17870,17772,17089,17961,17334,17587,17361,17812,17700,17041,17453,17530,17060,17879,17318,17229,17211,17059,17954,17965,17035,17575,17381,17111,17681,17039,17915,17022,17171,17255,17034,17717,17291,17471,17873,17474,17290,17311,17243,17893,17307,17008,17420,17899,17664,17295,17467,17600,17434,17773,17256,17463,17212,17975,17566,17165,17617,17528,17940,17871,17568,17079,17904,17646,17462,17213,17787,17803,17927,17047,17525,17526,17120,17121,17174,17366,17413,17319,17351,17385,17269,17541,17770,17693,17425,17253,17602,17963,17842,17422,17597,17328,17806,17608,17634,17689,17357,17405,17775,17151,17289,17684,17268,17616,17868,17809,17153,17310,17136,17240,17723,17270,17345,17115,17479,17013,17112,17390,17012,17139,17794,17428,17478,17990,17825,17561,17800,17347,17673,17472,17127,17483,17161,17338,17380,17712,17088,17241,17304,17092,17838,15830,15522,15043,15671,15931,15563,15016,15950,15807,15005,15144,15958,15158,15616,15233,15132,15935,15970,15060,15731,15760,15372,15255,15404,15015,15346,15932,15051,15492,15558,15007,15050,15474,15176,15725,15812,15529,15309,15343,15850,15330,15637,15488,15178,15703,15086,15040,15338,15876,15700,15713,15531,15598,15747,15044,15690,15084,15226,15318,15996,15623,15229,15415,15212,15270,15241,15197,15289,15340,15520,15166,15461,15258,15059,15900,15881,15370,15283,15004,15411,15360,15096,15635,15651,15234,15322,15374,15206,15205,15235,15866,15802,15739,15844,15628,15778,15994,15553,15997,15434,15102,15832,15483,15641,15607,15295,15327,15643,15755,15408,15863,15576,15701,15738,15687,15058,15170,15087,15674,15926,15413,15711,15569,15213,15393,15985,15909,15753,15601,15098,15539,15891,15693,15770,15595,15475,15578,15150,15046,15277,15833,15353,15573,15401,15311,15951,15104,15941,15169,15424,15825,15629,15663,15382,15110,15732,15838,15075,15698,15129,15530,15428,15449,15261,15971,15228,15550,15303,15661,15960,15798,15033,15014,15358,15691,15972,15305,15869,15823,15964,15546,15666,15744,15627,15836,15829,15696,15179,15945,15191,15481,15452,15705,15278,15726,15930,15946,15443,15462,15445,15302,15973,15242,15123,15380,15024,15292,15518,15491,15323,15774,15134,15617,15803,15678,15519,15748,15681,15967,15777,15254,15650,15159,15502,15124,15204,15073,15482,15686,15962,15090,15135,15440,15608,15602,15095,15788,15615,15055,15390,15565,15910,15473,15599,15240,15174,15758,15391,15342,15426,15065,15854,15125,15806,15723,15664,15549,15720,15783,15386,15487,15383,15771,15982,15966,15668,15775,15057,15992,15077,15171,15743,15995,15146,15187,15405,15963,15329,15772,15045,15929,15621,15583,15905,15127,15361,15451,15815,15138,15395,15117,15596,15196,15735,15544,15586,15335,15886,15369,15076,15959,15991,15211,15804,15182,15761,15041,15437,15160,15499,15399,15477,15543,15351,15332,15551,15715,15894,15722,15193,15480,15186,15791,15500,15856,15468,15476,15952,15567,15336,15414,15126,15527,15942,15153,15301,15619,15067,15355,15652,15568,15655,15088,15872,15282,15717,15682,15001,15296,15195,15201,15837,15525,15200,15852,15862,15592,15659,15271,15969,15587,15116,15145,15591,15523,15556,15194,15654,15998,15225,15831,15526,15512,15983,15944,15528,15439,15497,15444,15845,15034,15718,15624,15749,15855,15977,15993,15883,15069,15269,15141,15824,15542,15940,15431,15108,15506,15540,15319,15767,15685,15870,15063,15163,15867,15800,15350,15913,15618,15219,15453,15729,15669,15827,15149,15264,15082,15507,15699,15521,15244,15509,15508,15545,15707,15799,15053,15280,15548,15915,15853,15897,15938,15279,15702,15091,15505,15667,15581,15947,15478,15841,15100,15765,15730,15000,15418,15245,15203,15646,15554,15429,15167,15882,15251,15899,15584,15348,15316,15427,15746,15768,15625,15796,15359,15821,15298,15835,15349,15334,15842,15878,15164,15752,15902,15048,15433,15781,15238,15795,15632,15984,15575,15328,15377,15943,15734,15471,15464,15013,15101,15600,15217,15354,15921,15741,15022,15622,15288,15680,15904,15290,15331,15640,15446,15538,15810,15152,15410,15143,15042,15406,15710,15979,15018,15122,15890,15190,15826,15407,15121,15310,15231,15609,15612,15074,15633,15378,15557,15113,15031,15665,15871,15785,15864,15604,15128,15368,15751,15263,15644,15813,15366,15070,15658,15448,15786,15780,15460,15776,15221,15432,15412,15868,15259,15516,15157,15099,15062,15887,15603,15398,15851,15903,15458,15459,15510,15165,15918,15908,15253,15981,15673,15501,15645,15223,15085,15009,15260,15066,15384,15877,15916,15185,15639,15582,15660,15267,15756,15923,15653,15052,15465,15003,15188,15986,15148,15784,15679,15709,15227,15496,15392,15208,15341,15649,15109,15683,15561,15961,15811,15494,15745,15937,15694,15421,15819,15547,15306,15218,15442,15155,15364,15172,15293,15010,15793,15207,15626,15818,15389,15115,15247,15284,15409,15840,15294,15324,15215,15560,15375,15677,15222,15403,15939,15927,15142,15114,15642,15773,15688,15237,15990,15430,15130,15118,15865,15817,15611,15396,15733,15103,15224,15417,15441,15571,15266,15589,15376,15275,15614,15314,15356,15388,15093,15089,15347,15892,15326,15061,15300,15139,15027,15676,15297,15620,15484,15184,15740,15588,15387,15537,15570,15684,15029,15472,15230,15763,15524,15849,15274,15712,15470,15002,15613,15515,15373,15385,15333,15281,15232,15541,15489,15345,15805,15454,15594,15248,15724,15080,15719,15362,15236,15083,15312,15436,15272,15416,15814,15379,15648,15610,15630,15011,15911,15456,15936,15151,15037,15901,15147,15974,15933,15906,15265,15156,15597,15026,15463,15656,15094,15325,15198,15133,15534,15202,15276,15049,15131,15574,15834,15189,15214,15495,15485,15192,15975,15858,15371,15917,15321,15023,15857,15313,15419,15636,15498,15716,15859,15054,15728,15367,15503,15180,15828,15220,15585,15884,15466,15924,15631,15695,15068,15352,15291,15064,15919,15579,15079,15948,15250,15552,15662,15895,15593,15846,15320,15559,15893,15450,15879,15514,15954,15504,15239,15107,15047,15759,15036,15792,15787,15953,15256,15860,15750,15914,15039,15161,15106,15790,15285,15564,15199,15572,15577,15423,15447,15357,15173,15955,15797,15365,15072,15757,15246,15762,15657,15566,15704,15469,15175,15420,15638,15304,15533,15012,15344,15177,15532,15032,15816,15120,15315,15136,15779,15081,15287,15210,15999,15978,15809,15249,15339,15920,15216,15980,15097,15708,15769,15112,15486,15030,15675,15889,15457,15140,15822,15590,15025,15874,15021,15949,15307,15580,15020,15397,15839,15873,15056,15737,15257,15672,15137,15934,15957,15782,15808,15317,15243,15922,15847,15162,15071,15438,15028,15789,15455,15535,15875,15394,15968,15363,15154,15273,15555,15092,15078,15181,15511,15513,15965,15019,15928,15035,15989,15689,15976,15105,15848,15422,15754,15262,15861,15907,15299,15562,15308,15209,15286,15252,15479,15605,15402,15794,15912,15888,15435,15490,15736,15517,15183,15880,15706,15425,15493,15727,15168,15721,15038,15764,15692,15111,15647,15634,15337,15017,15988,15381,15820,15467,15606,15925,15801,15956,15670,15898,15119,15987,15896,15843,15766,15268,15400,15714,15885,15697,15008,15536,15006,03938,03621,03343,03363,03109,03701,03797,03258,03530,03338,03739,03125,03042,03145,03608,03799,03375,03425,03731,03515,03034,03310,03724,03156,03815,03838,03780,03291,03272,03573,03020,03579,03094,03242,03328,03200,03681,03873,03735,03738,03144,03432,03462,03473,03071,03037,03745,03337,03082,03912,03931,03897,03186,03548,03779,03104,03252,03851,03964,03418,03132,03402,03124,03781,03484,03085,03182,03859,03560,03213,03901,03487,03824,03465,03882,03558,03061,03525,03588,03610,03141,03590,03265,03219,03794,03114,03599,03188,03133,03126,03210,03574,03466,03273,03283,03935,03544,03264,03341,03796,03189,03440,03925,03404,03296,03409,03723,03023,03171,03648,03424,03329,03527,03752,03645,03494,03444,03371,03393,03922,03758,03954,03972,03128,03122,03631,03185,03896,03199,03913,03831,03974,03975,03597,03077,03545,03990,03377,03001,03583,03538,03755,03930,03435,03504,03460,03111,03351,03708,03867,03672,03392,03614,03301,03963,03480,03734,03940,03835,03309,03855,03497,03658,03196,03669,03615,03607,03981,03414,03567,03878,03651,03422,03491,03837,03852,03958,03511,03830,03736,03439,03842,03479,03007,03704,03531,03072,03683,03394,03902,03546,03602,03177,03566,03068,03247,03705,03829,03744,03763,03403,03241,03346,03380,03281,03578,03541,03769,03348,03349,03916,03895,03995,03450,03685,03718,03334,03012,03477,03501,03235,03633,03286,03458,03445,03010,03950,03306,03119,03451,03983,03682,03506,03292,03559,03305,03035,03064,03543,03519,03167,03401,03222,03869,03646,03230,03644,03170,03220,03860,03849,03820,03352,03448,03158,03398,03361,03688,03031,03927,03483,03536,03198,03347,03202,03297,03364,03748,03885,03323,03463,03563,03165,03789,03643,03471,03712,03407,03456,03175,03570,03093,03945,03117,03153,03459,03311,03173,03627,03333,03157,03102,03091,03650,03821,03251,03808,03998,03526,03355,03598,03556,03783,03828,03883,03833,03294,03743,03304,03356,03266,03476,03846,03973,03000,03453,03078,03642,03372,03857,03327,03733,03275,03601,03662,03332,03584,03108,03717,03836,03293,03187,03793,03870,03970,03996,03673,03509,03358,03533,03706,03813,03924,03710,03370,03092,03908,03416,03582,03056,03455,03231,03387,03581,03237,03639,03957,03810,03345,03253,03138,03517,03729,03226,03985,03088,03887,03537,03826,03106,03589,03982,03703,03879,03759,03767,03909,03475,03268,03075,03702,03468,03802,03496,03550,03178,03431,03289,03084,03772,03741,03320,03486,03419,03576,03025,03415,03886,03099,03812,03452,03640,03423,03021,03269,03190,03442,03915,03715,03095,03287,03054,03874,03523,03956,03438,03436,03489,03863,03577,03434,03609,03382,03807,03803,03518,03367,03115,03721,03013,03390,03660,03107,03006,03357,03709,03716,03243,03267,03017,03326,03923,03898,03711,03388,03894,03876,03726,03652,03502,03561,03079,03553,03166,03016,03284,03360,03299,03499,03865,03076,03280,03884,03069,03149,03862,03097,03722,03905,03585,03920,03176,03788,03656,03046,03612,03624,03947,03557,03888,03271,03089,03630,03943,03221,03926,03694,03174,03215,03130,03747,03969,03749,03725,03814,03684,03817,03911,03142,03952,03262,03586,03399,03385,03539,03366,03313,03282,03447,03629,03179,03692,03384,03204,03564,03110,03249,03058,03875,03008,03668,03514,03105,03907,03827,03205,03014,03507,03396,03928,03259,03191,03811,03033,03720,03771,03322,03844,03678,03727,03775,03397,03791,03288,03255,03340,03270,03123,03151,03318,03374,03163,03302,03571,03822,03026,03641,03239,03015,03492,03285,03994,03754,03260,03776,03383,03223,03155,03978,03805,03005,03429,03331,03276,03611,03197,03659,03647,03562,03989,03059,03961,03319,03680,03768,03555,03699,03147,03595,03665,03090,03889,03936,03413,03575,03065,03482,03232,03154,03048,03100,03229,03406,03481,03756,03742,03505,03295,03676,03029,03697,03900,03520,03381,03866,03626,03691,03330,03011,03918,03993,03062,03454,03569,03903,03009,03663,03906,03194,03248,03074,03984,03140,03856,03552,03303,03966,03625,03521,03169,03103,03864,03024,03914,03470,03083,03047,03565,03762,03529,03698,03256,03362,03344,03786,03018,03428,03740,03098,03551,03055,03603,03986,03834,03967,03959,03770,03623,03932,03464,03143,03180,03203,03086,03636,03159,03944,03686,03395,03257,03051,03991,03592,03667,03066,03316,03060,03421,03426,03113,03594,03335,03635,03246,03757,03472,03353,03587,03596,03073,03953,03764,03968,03214,03234,03689,03508,03411,03679,03893,03524,03500,03854,03766,03987,03498,03677,03032,03150,03040,03045,03787,03917,03750,03127,03430,03181,03238,03773,03379,03488,03148,03212,03528,03410,03365,03485,03233,03547,03778,03847,03951,03217,03522,03043,03657,03638,03753,03992,03965,03441,03568,03044,03737,03478,03655,03369,03948,03354,03474,03532,03376,03637,03250,03469,03632,03666,03160,03443,03653,03437,03339,03298,03977,03613,03933,03030,03825,03164,03649,03512,03087,03350,03136,03872,03378,03840,03785,03606,03997,03774,03921,03728,03535,03850,03183,03244,03605,03980,03495,03412,03949,03790,03816,03858,03027,03620,03146,03549,03988,03368,03300,03049,03263,03946,03053,03312,03218,03019,03892,03904,03427,03162,03760,03240,03391,03461,03503,03746,03941,03036,03619,03806,03193,03880,03209,03591,03152,03979,03446,03131,03161,03081,03687,03600,03937,03899,03910,03038,03490,03809,03513,03713,03962,03661,03207,03674,03670,03070,03096,03116,03139,03942,03580,03195,03080,03777,03622,03290,03405,03063,03039,03843,03050,03004,03225,03572,03719,03192,03274,03877,03861,03433,03955,03120,03400,03751,03168,03540,03308,03868,03041,03617,03891,03554,03695,03510,03690,03693,03028,03245,03841,03314,03342,03420,03534,03112,03359,03003,03137,03671,03417,03002,03604,03373,03732,03696,03467,03960,03227,03976,03201,03208,03845,03792,03618,03277,03616,03315,03634,03765,03101,03325,03386,03730,03839,03707,03971,03848,03714,03819,03278,03307,03389,03493,03408,03172,03067,03675,03700,03853,03871,03939,03184,03336,03664,03129,03254,03654,03818,03134,03457,03784,03022,03823,03934,03321,03135,03261,03121,03211,03206,03782,03881,03118,03216,03449,03628,03324,03761,03890,03542,03516,03919,03224,03228,03804,03929,03052,03999,03593,03236,03057,03279,03317,09332,09203,09206,09277,09926,09127,09846,09420,09211,09467,09925,09577,09670,09635,09646,09443,09140,09322,09419,09563,09461,09049,09857,09558,09929,09850,09144,09259,09455,09164,09764,09323,09115,09493,09848,09892,09415,09200,09640,09464,09450,09566,09225,09402,09800,09712,09197,09222,09181,09975,09565,09067,09324,09379,09457,09433,09473,09548,09510,09045,09779,09428,09940,09330,09213,09050,09329,09728,09241,09706,09261,09303,09296,09504,09559,09864,09586,09527,09378,09526,09780,09809,09599,09885,09806,09229,09651,09804,09660,09055,09571,09239,09838,09087,09582,09328,09862,09367,09436,09342,09923,09141,09841,09427,09253,09683,09624,09691,09084,09998,09116,09468,09089,09790,09337,09071,09138,09304,09731,09817,09056,09040,09133,09702,09542,09930,09774,09393,09968,09690,09621,09143,09475,09827,09810,09052,09480,09629,09812,09431,09385,09465,09344,09951,09295,09005,09665,09311,09199,09529,09447,09318,09494,09547,09446,09889,09588,09244,09695,09723,09673,09355,09689,09753,09460,09519,09507,09404,09748,09791,09221,09881,09157,09575,09934,09943,09900,09771,09177,09384,09739,09232,09645,09377,09135,09268,09711,09048,09819,09171,09932,09224,09272,09252,09325,09856,09833,09770,09401,09137,09285,09698,09399,09732,09704,09338,09041,09076,09444,09058,09798,09458,09966,09990,09230,09709,09397,09096,09538,09876,09070,09897,09532,09123,09958,09973,09227,09799,09959,09837,09658,09792,09604,09672,09226,09785,09248,09069,09727,09178,09608,09912,09813,09374,09899,09756,09453,09128,09163,09782,09009,09242,09920,09815,09904,09153,09340,09130,09517,09270,09496,09816,09294,09720,09327,09570,09744,09916,09962,09132,09161,09590,09505,09878,09735,09336,09360,09513,09619,09176,09579,09165,09921,09425,09602,09768,09273,09545,09326,09063,09257,09034,09872,09992,09142,09939,09015,09154,09362,09854,09681,09638,09686,09871,09016,09354,09251,09280,09661,09617,09093,09832,09969,09562,09104,09584,09985,09416,09059,09316,09600,09097,09649,09919,09383,09288,09010,09107,09718,09733,09707,09515,09506,09345,09937,09603,09339,09594,09064,09353,09828,09514,09657,09314,09587,09980,09198,09030,09546,09361,09736,09623,09995,09589,09909,09994,09495,09249,09595,09395,09057,09375,09979,09536,09869,09223,09965,09454,09187,09568,09193,09984,09368,09550,09997,09818,09282,09887,09981,09108,09933,09440,09196,09155,09174,09839,09797,09422,09350,09578,09662,09170,09023,09025,09027,09474,09134,09625,09999,09079,09315,09525,09011,09873,09417,09109,09719,09750,09068,09763,09411,09231,09615,09745,09687,09898,09918,09742,09700,09781,09449,09372,09043,09216,09136,09236,09669,09247,09659,09946,09284,09642,09275,09489,09019,09260,09573,09220,09715,09585,09032,09351,09910,09534,09583,09945,09855,09874,09808,09477,09724,09512,09656,09233,09701,09530,09679,09870,09278,09074,09060,09747,09692,09219,09820,09631,09237,09035,09173,09908,09188,09596,09668,09189,09441,09826,09556,09890,09760,09105,09502,09448,09423,09094,09112,09524,09180,09331,09106,09287,09522,09149,09964,09364,09852,09941,09863,09437,09150,09036,09356,09875,09767,09001,09126,09886,09210,09521,09880,09924,09766,09903,09628,09694,09283,09612,09289,09963,09204,09636,09381,09499,09062,09836,09523,09389,09120,09597,09306,09632,09591,09000,09539,09148,09647,09598,09003,09250,09310,09151,09569,09688,09014,09531,09080,09297,09954,09637,09088,09793,09492,09789,09182,09849,09842,09618,09291,09644,09801,09414,09235,09650,09390,09989,09192,09913,09914,09935,09262,09620,09567,09882,09928,09208,09520,09847,09122,09853,09511,09114,09537,09708,09528,09445,09860,09169,09759,09938,09347,09868,09830,09371,09726,09366,09533,09412,09714,09978,09988,09022,09090,09312,09424,09722,09685,09557,09119,09307,09075,09162,09680,09363,09214,09299,09240,09682,09741,09053,09991,09073,09184,09684,09301,09630,09614,09286,09844,09648,09609,09891,09788,09787,09663,09292,09147,09835,09373,09413,09175,09406,09185,09879,09317,09376,09960,09754,09884,09186,09776,09117,09605,09777,09697,09047,09927,09007,09738,09671,09664,09911,09031,09209,09613,09497,09160,09693,09459,09905,09564,09472,09501,09258,09616,09256,09676,09207,09321,09877,09298,09705,09953,09896,09269,09610,09265,09592,09281,09124,09037,09388,09012,09121,09696,09858,09653,09765,09491,09400,09996,09762,09234,09382,09086,09046,09021,09111,09814,09795,09131,09487,09717,09778,09072,09246,09730,09212,09118,09407,09678,09622,09541,09822,09803,09931,09451,09430,09358,09099,09725,09396,09627,09103,09783,09365,09761,09485,09129,09666,09552,09264,09305,09098,09971,09486,09293,09095,09851,09893,09183,09703,09974,09633,09906,09125,09024,09786,09549,09553,09772,09503,09352,09829,09218,09907,09456,09255,09749,09773,09426,09346,09343,09469,09386,09091,09463,09977,09986,09349,09917,09484,09721,09746,09077,09540,09867,09042,09481,09834,09805,09409,09811,09006,09734,09555,09168,09823,09845,09359,09677,09902,09607,09392,09100,09572,09500,09217,09429,09840,09051,09740,09865,09652,09334,09593,09952,09205,09482,09982,09092,09574,09101,09674,09948,09901,09983,09543,09699,09729,09013,09380,09369,09470,09667,09033,09290,09580,09061,09751,09956,09775,09243,09861,09179,09479,09146,09894,09403,09915,09066,09716,09113,09044,09228,09398,09320,09639,09394,09947,09655,09554,09895,09498,09654,09601,09641,09509,09710,09357,09054,09434,09922,09987,09020,09002,09038,09611,09936,09508,09391,09561,09794,09713,09518,09348,09560,09483,09950,09405,09866,09245,09172,09215,09758,09769,09581,09263,09026,09082,09302,09159,09883,09972,09466,09078,09408,09824,09110,09190,09387,09029,09949,09955,09551,09370,09145,09018,09167,09471,09004,09238,09085,09435,09439,09807,09102,09166,09752,09490,09784,09335,09158,09274,09410,09743,09139,09279,09462,09267,09944,09266,09309,09065,09152,09476,09028,09757,09313,09626,09202,09195,09442,09675,09535,09516,09488,09156,09643,09634,09976,09606,09418,09796,09319,09961,09859,09341,09271,09191,09942,09478,09201,09008,09017,09843,09576,09081,09544,09308,09254,09831,09957,09039,09333,09993,09755,09438,09432,09452,09276,09083,09300,09737,09967,09802,09194,09970,09421,14371,14997,14327,14136,14745,14500,14473,14293,14290,14729,14733,14584,14471,14581,14036,14306,14158,14502,14383,14249,14984,14476,14523,14373,14177,14330,14938,14448,14250,14861,14453,14159,14860,14116,14562,14090,14144,14648,14427,14166,14478,14169,14148,14259,14752,14976,14631,14418,14595,14421,14703,14672,14301,14272,14608,14626,14820,14587,14391,14567,14819,14528,14337,14121,14096,14141,14335,14082,14193,14078,14746,14604,14428,14810,14580,14213,14982,14734,14288,14426,14707,14990,14212,14313,14400,14336,14134,14209,14501,14499,14679,14685,14482,14830,14827,14300,14763,14939,14612,14103,14747,14831,14915,14824,14029,14558,14722,14410,14075,14317,14627,14693,14663,14503,14262,14607,14070,14669,14009,14104,14220,14913,14788,14919,14037,14535,14782,14460,14416,14889,14879,14771,14445,14767,14624,14468,14776,14208,14420,14407,14269,14602,14654,14975,14219,14716,14145,14485,14899,14936,14954,14223,14874,14620,14312,14257,14504,14352,14635,14081,14593,14228,14748,14180,14610,14946,14143,14658,14211,14094,14056,14728,14161,14487,14467,14462,14106,14438,14834,14278,14947,14291,14215,14019,14705,14030,14647,14653,14076,14933,14441,14299,14194,14925,14264,14547,14361,14740,14406,14443,14845,14754,14684,14067,14912,14589,14559,14659,14532,14408,14292,14088,14713,14935,14828,14225,14376,14266,14968,14537,14392,14013,14140,14497,14481,14977,14367,14534,14847,14545,14409,14588,14730,14397,14049,14897,14042,14960,14023,14242,14464,14059,14773,14542,14625,14065,14568,14519,14298,14524,14962,14002,14870,14309,14520,14000,14012,14634,14645,14692,14832,14916,14513,14039,14463,14564,14695,14718,14617,14678,14844,14375,14512,14080,14204,14900,14319,14959,14114,14543,14894,14244,14673,14258,14119,14182,14411,14817,14539,14175,14650,14174,14793,14021,14618,14544,14902,14609,14615,14305,14665,14386,14368,14735,14117,14089,14756,14480,14509,14712,14574,14766,14197,14270,14047,14526,14803,14316,14396,14565,14923,14357,14903,14038,14484,14051,14561,14880,14283,14682,14358,14338,14622,14062,14571,14806,14868,14715,14093,14353,14165,14891,14670,14505,14483,14017,14882,14044,14113,14469,14414,14961,14137,14466,14563,14554,14050,14867,14382,14417,14109,14001,14310,14366,14192,14760,14146,14095,14254,14887,14530,14034,14171,14133,14152,14172,14699,14949,14442,14522,14991,14118,14404,14003,14998,14739,14979,14395,14157,14452,14881,14423,14274,14942,14026,14439,14929,14706,14432,14184,14489,14267,14836,14556,14786,14833,14343,14006,14168,14390,14924,14714,14112,14393,14233,14550,14652,14540,14725,14656,14060,14015,14099,14777,14248,14691,14446,14783,14774,14859,14791,14384,14210,14455,14251,14295,14560,14494,14884,14759,14591,14677,14744,14256,14619,14261,14110,14957,14048,14926,14911,14953,14008,14318,14719,14296,14276,14329,14850,14944,14927,14742,14186,14229,14667,14753,14265,14606,14150,14394,14600,14202,14334,14549,14696,14851,14362,14864,14801,14064,14633,14721,14260,14363,14778,14690,14841,14196,14829,14071,14727,14183,14385,14122,14641,14218,14063,14970,14895,14370,14951,14965,14743,14379,14931,14191,14999,14910,14227,14324,14046,14598,14507,14941,14883,14981,14020,14557,14328,14888,14842,14508,14757,14348,14459,14555,14749,14764,14387,14419,14839,14857,14339,14138,14389,14687,14190,14066,14808,14578,14533,14344,14495,14966,14779,14139,14308,14346,14843,14799,14022,14787,14176,14398,14594,14429,14837,14762,14639,14289,14661,14978,14068,14342,14987,14823,14660,14465,14686,14041,14573,14632,14683,14005,14922,14704,14630,14800,14365,14750,14852,14908,14221,14945,14599,14372,14173,14040,14958,14286,14570,14263,14675,14890,14541,14492,14303,14872,14447,14239,14205,14551,14206,14592,14294,14538,14073,14708,14311,14402,14153,14805,14590,14674,14866,14347,14440,14952,14381,14893,14345,14369,14231,14331,14813,14901,14758,14412,14098,14711,14875,14490,14896,14877,14486,14472,14498,14035,14057,14848,14325,14341,14680,14052,14086,14224,14657,14350,14079,14601,14354,14802,14043,14955,14795,14775,14964,14287,14651,14605,14130,14431,14128,14277,14856,14796,14275,14170,14004,14572,14517,14529,14027,14415,14238,14302,14217,14284,14815,14702,14785,14751,14207,14356,14546,14726,14611,14515,14943,14252,14087,14124,14268,14676,14983,14401,14732,14016,14333,14380,14307,14323,14514,14636,14351,14638,14761,14992,14321,14222,14091,14456,14413,14809,14314,14424,14360,14437,14694,14552,14797,14698,14921,14664,14232,14980,14737,14603,14582,14126,14886,14873,14804,14477,14790,14973,14869,14045,14548,14240,14511,14236,14858,14025,14553,14697,14765,14950,14798,14904,14566,14230,14569,14123,14769,14433,14374,14181,14127,14178,14731,14297,14878,14198,14201,14235,14700,14120,14241,14425,14326,14681,14097,14917,14928,14666,14457,14865,14105,14948,14271,14163,14932,14388,14623,14111,14597,14825,14710,14527,14863,14083,14355,14162,14018,14032,14364,14885,14576,14789,14649,14849,14226,14200,14069,14405,14906,14147,14247,14628,14216,14818,14525,14918,14160,14898,14491,14024,14821,14007,14876,14614,14956,14930,14794,14304,14972,14621,14107,14053,14985,14028,14909,14988,14835,14315,14506,14033,14780,14816,14359,14102,14643,14709,14974,14282,14668,14149,14167,14454,14994,14642,14770,14273,14340,14812,14741,14723,14596,14996,14195,14253,14434,14536,14280,14031,14493,14662,14245,14074,14450,14920,14871,14655,14151,14055,14736,14188,14772,14781,14986,14862,14701,14934,14616,14156,14444,14518,14115,14154,14132,14101,14995,14142,14010,14521,14689,14585,14496,14583,14436,14892,14085,14072,14185,14430,14907,14967,14516,14092,14011,14058,14014,14179,14855,14155,14422,14435,14285,14449,14458,14129,14199,14475,14243,14054,14084,14838,14579,14378,14807,14640,14671,14822,14644,14399,14237,14940,14854,14077,14061,14724,14108,14255,14451,14377,14586,14531,14720,14937,14646,14963,14164,14470,14214,14971,14811,14322,14814,14993,14738,14629,14613,14281,14246,14474,14637,14125,14479,14131,14403,14349,14840,14320,14905,14234,14969,14826,14510,14688,14461,14717,14187,14135,14100,14914,14755,14846,14989,14784,14488,14853,14792,14575,14189,14279,14203,14577,14768,14332,01029,01035,01141,01433,01105,01461,01137,01646,01860,01210,01584,01566,01622,01231,01372,01898,01042,01242,01786,01181,01750,01573,01582,01323,01419,01089,01212,01132,01850,01575,01985,01715,01432,01259,01117,01565,01160,01412,01778,01727,01690,01357,01192,01933,01136,01613,01052,01288,01286,01331,01115,01226,01240,01379,01557,01220,01529,01906,01129,01686,01407,01112,01194,01577,01464,01983,01416,01822,01365,01714,01196,01092,01232,01097,01266,01466,01793,01998,01224,01524,01550,01996,01700,01900,01208,01031,01038,01896,01415,01146,01862,01751,01739,01716,01156,01765,01596,01632,01866,01807,01508,01647,01073,01960,01363,01711,01497,01516,01887,01490,01718,01438,01525,01044,01209,01143,01794,01482,01506,01334,01563,01816,01048,01809,01391,01463,01990,01667,01724,01761,01058,01922,01290,01034,01812,01855,01675,01941,01886,01556,01228,01377,01949,01012,01427,01386,01265,01795,01294,01799,01783,01684,01495,01345,01644,01202,01725,01655,01699,01569,01630,01237,01477,01723,01025,01755,01414,01444,01395,01107,01330,01943,01200,01626,01394,01144,01021,01588,01539,01325,01046,01695,01548,01302,01827,01519,01743,01026,01680,01287,01199,01589,01253,01374,01064,01904,01835,01980,01340,